"Time (s)","Acceleration x (m/s^2)","Acceleration y (m/s^2)","Acceleration z (m/s^2)","Absolute acceleration (m/s^2)"
4.295813000E-2,7.848458290E-1,1.237089276E0,9.035298347E0,9.153304817E0
4.537313000E-2,8.709874153E-1,1.179661512E0,9.399007797E0,9.512705605E0
4.778807800E-2,9.499505758E-1,1.138983607E0,9.757930756E0,9.870000121E0
5.020302600E-2,1.007378340E0,1.110269666E0,1.011446095E1,1.022496113E1
5.261802600E-2,1.038485050E0,1.069591761E0,1.046142101E1,1.056710970E1
5.503297400E-2,1.048056364E0,1.055234790E0,1.080120182E1,1.090311439E1
5.744797400E-2,1.045663476E0,1.064806104E0,1.113858986E1,1.123812298E1
5.986292200E-2,9.954141974E-1,1.093519926E0,1.143529987E1,1.153051250E1
6.227792200E-2,9.690931439E-1,1.134197950E0,1.171047401E1,1.180511534E1
6.469287000E-2,9.020941257E-1,1.177268744E0,1.196172047E1,1.205331871E1
6.710781800E-2,8.087740541E-1,1.196411371E0,1.218425274E1,1.226953668E1
6.952281800E-2,7.178468108E-1,1.249053478E0,1.234696484E1,1.243072722E1
7.193776600E-2,6.293123364E-1,1.261017561E0,1.249532032E1,1.257454688E1
7.435276600E-2,5.647061467E-1,1.282552958E0,1.260060406E1,1.267829080E1
7.676771400E-2,4.977070987E-1,1.316052437E0,1.269392395E1,1.277166440E1
7.918266200E-2,4.761717021E-1,1.363908887E0,1.272503090E1,1.280677158E1
8.159766200E-2,4.618147612E-1,1.375872970E0,1.271067429E1,1.279326151E1
8.401261000E-2,4.522434771E-1,1.390229940E0,1.266042423E1,1.274455198E1
8.642761000E-2,4.833501875E-1,1.387837172E0,1.255992603E1,1.264561036E1
8.884255800E-2,5.024927258E-1,1.397408366E0,1.241635704E1,1.250484591E1
9.125755800E-2,5.407779217E-1,1.390229940E0,1.223450184E1,1.232510508E1
9.367250500E-2,5.886343718E-1,1.380658627E0,1.202393341E1,1.211724735E1
9.608745300E-2,6.245267391E-1,1.375872970E0,1.177747345E1,1.187400273E1
9.850245300E-2,6.245267391E-1,1.361516118E0,1.150229836E1,1.159942357E1
1.009174010E-1,6.460621357E-1,1.359123230E0,1.120558834E1,1.130618513E1
1.033324010E-1,6.412764788E-1,1.371087432E0,1.088016415E1,1.098494825E1
1.057473490E-1,6.317051649E-1,1.383051515E0,1.053559780E1,1.064475006E1
1.081622970E-1,6.029912829E-1,1.387837172E0,1.018385315E1,1.029565712E1
1.105772970E-1,5.910272002E-1,1.416550994E0,9.868000984E0,9.986659767E0
1.129922450E-1,6.005984545E-1,1.442872047E0,9.556933403E0,9.683882193E0
1.154072450E-1,6.125625968E-1,1.464407444E0,9.293723106E0,9.428309036E0
1.178221930E-1,6.053841114E-1,1.483550072E0,9.071190834E0,9.211618418E0
1.202371930E-1,6.340979934E-1,1.485942841E0,8.886942863E0,9.032599839E0
1.226521410E-1,6.508477330E-1,1.490728498E0,8.733802795E0,8.883984776E0
1.250670890E-1,6.891329288E-1,1.500299811E0,8.614161491E0,8.770951027E0
1.274820890E-1,7.154539824E-1,1.507478237E0,8.492127419E0,8.654512876E0
1.298970370E-1,7.465606928E-1,1.517049551E0,8.413164139E0,8.581382350E0
1.323120370E-1,7.800601721E-1,1.514656782E0,8.365307808E0,8.537040105E0
1.347269850E-1,8.255237937E-1,1.529013634E0,8.374878883E0,8.553243159E0
1.371419330E-1,8.805587292E-1,1.560120344E0,8.453842163E0,8.641574306E0
1.395569330E-1,9.068797827E-1,1.567298889E0,8.583054543E0,8.771982788E0
1.419718800E-1,8.949156404E-1,1.588834286E0,8.755337715E0,8.943221282E0
1.443868800E-1,8.542376757E-1,1.596012712E0,8.879764557E0,9.062405705E0
1.468018280E-1,7.728816867E-1,1.627119422E0,9.001798630E0,9.180263737E0
1.492167760E-1,6.652047038E-1,1.615155339E0,9.119047165E0,9.284839539E0
1.516317760E-1,5.790630579E-1,1.588834286E0,9.209974289E0,9.363937997E0
1.540467240E-1,5.048855543E-1,1.569691658E0,9.250652313E0,9.396457287E0
1.564617240E-1,4.378865361E-1,1.507478237E0,9.229117393E0,9.361668821E0
1.588766720E-1,3.924229145E-1,1.418943882E0,9.178867340E0,9.296182180E0
1.612916720E-1,3.996013701E-1,1.347159147E0,9.102297783E0,9.210121821E0
1.637066200E-1,4.211367965E-1,1.275374413E0,9.042476654E0,9.141680378E0
1.661215680E-1,4.857429862E-1,1.205982566E0,9.025727272E0,9.118886609E0
1.685365680E-1,5.766702294E-1,1.141376376E0,9.056833267E0,9.146667011E0
1.709515160E-1,6.699903607E-1,1.117448211E0,9.097511292E0,9.190336734E0
1.733665160E-1,6.149554253E-1,1.086341500E0,9.152546883E0,9.237284367E0
1.757814640E-1,4.785645306E-1,1.045663476E0,9.262616158E0,9.333728847E0
1.781964120E-1,4.235295951E-1,1.098305583E0,9.382257462E0,9.455813426E0
1.806114120E-1,4.115654826E-1,1.184447169E0,9.473184586E0,9.555811187E0
1.830263600E-1,3.326023519E-1,1.287338614E0,9.554540634E0,9.646611413E0
1.854413600E-1,8.374879509E-2,1.270588875E0,9.377471924E0,9.463529449E0
1.878563080E-1,-1.435693651E-1,1.229910851E0,9.095118523E0,9.179023576E0
1.902713080E-1,-3.756731451E-1,1.086341500E0,8.999405861E0,9.072517513E0
1.926862550E-1,-4.809573591E-1,1.261017561E0,8.985049248E0,9.085845874E0
1.951012030E-1,-4.905286431E-1,1.428515077E0,8.941978455E0,9.068641153E0
1.975162030E-1,-4.905286431E-1,1.588834286E0,8.879764557E0,9.034114861E0
1.999311510E-1,-4.977070987E-1,1.758724689E0,8.858229637E0,9.044835941E0
2.023461510E-1,-4.953143001E-1,1.907079697E0,8.831908226E0,9.049027138E0
2.047610990E-1,-5.479564071E-1,2.060220242E0,8.848658562E0,9.101841682E0
2.071760470E-1,-5.958128572E-1,2.244467735E0,8.872586250E0,9.171445641E0
2.095910470E-1,-6.364908218E-1,2.392822742E0,8.932407379E0,9.269229894E0
2.120059950E-1,-7.058826685E-1,2.488535643E0,8.997013092E0,9.361480896E0
2.144209950E-1,-7.369893789E-1,2.562713146E0,9.068798065E0,9.452711270E0
2.168359430E-1,-8.111668825E-1,2.574677229E0,9.119047165E0,9.510203770E0
2.192509430E-1,-9.475577474E-1,2.541177750E0,9.145368576E0,9.539036452E0
2.216658910E-1,-1.141376376E0,2.490928411E0,9.109476089E0,9.512624191E0
2.240808390E-1,-1.383051515E0,2.421536446E0,9.052047729E0,9.471865621E0
2.264958390E-1,-1.667797327E0,2.318645239E0,8.963513374E0,9.407562685E0
2.289107870E-1,-1.990828395E0,2.215753794E0,8.872586250E0,9.359260085E0
2.313257870E-1,-2.313859463E0,2.112862349E0,8.846264839E0,9.384803382E0
2.337407350E-1,-2.617748022E0,2.045863390E0,8.836693764E0,9.440620657E0
2.361556830E-1,-2.868994236E0,1.933400750E0,8.896514893E0,9.545530034E0
2.385706830E-1,-3.060420275E0,1.837687731E0,9.020941734E0,9.701580192E0
2.409856300E-1,-3.211168051E0,1.756331801E0,9.202795982E0,9.903926269E0
2.434006300E-1,-3.340380430E0,1.706082582E0,9.387042999E0,1.010868119E1
2.458155780E-1,-3.450450182E0,1.682154298E0,9.552147865E0,1.029459948E1
2.482305260E-1,-3.555734396E0,1.667797327E0,9.671789169E0,1.043878828E1
2.506455260E-1,-3.649054527E0,1.686939955E0,9.769894600E0,1.056466781E1
2.530604740E-1,-3.649054527E0,1.725225091E0,9.870393753E0,1.066380201E1
2.554754740E-1,-3.613162279E0,1.765903115E0,1.000199890E1,1.078022901E1
2.578904220E-1,-3.493520975E0,1.818545222E0,1.015992451E1,1.089659862E1
2.603054220E-1,-3.292523861E0,1.844866276E0,1.032981491E1,1.099769617E1
2.627203700E-1,-3.067598581E0,1.899901152E0,1.052363396E1,1.112504639E1
2.651353180E-1,-2.837887764E0,1.875972986E0,1.073898792E1,1.126493423E1
2.675503180E-1,-2.612962246E0,1.842473388E0,1.093998528E1,1.139761193E1
2.699652660E-1,-2.435893536E0,1.758724689E0,1.110987568E1,1.150895423E1
2.723802660E-1,-2.349751949E0,1.641476393E0,1.124148083E1,1.160114952E1
2.747952140E-1,-2.342573404E0,1.550549030E0,1.132522964E1,1.166844801E1
2.772101620E-1,-2.411965132E0,1.483550072E0,1.130130100E1,1.165066097E1
2.796251620E-1,-2.502892494E0,1.406979680E0,1.120319557E1,1.156527793E1
2.820401100E-1,-2.632104874E0,1.323230863E0,1.102612686E1,1.141290452E1
2.844551100E-1,-2.785245657E0,1.263410330E0,1.078684425E1,1.121203853E1
2.868700580E-1,-2.904886723E0,1.220339537E0,1.054277611E1,1.100353232E1
2.892850050E-1,-3.022135019E0,1.232303619E0,1.031067276E1,1.081488997E1
2.917000050E-1,-3.115455151E0,1.253839016E0,1.010488987E1,1.064833190E1
2.941149530E-1,-3.182454109E0,1.294517040E0,9.930213928E0,1.050775605E1
2.965299530E-1,-3.208775282E0,1.354337573E0,9.750752449E0,1.035411234E1
2.989449010E-1,-3.175275564E0,1.423729420E0,9.554540634E0,1.016851155E1
3.013599010E-1,-3.134597778E0,1.450050473E0,9.312865257E0,9.932663737E0
3.037748490E-1,-3.074777126E0,1.478764415E0,9.095118523E0,9.714019740E0
3.061897970E-1,-2.935993433E0,1.469193101E0,8.918049812E0,9.503167801E0
3.086047970E-1,-2.794816732E0,1.433300734E0,8.863015175E0,9.403105314E0
3.110197450E-1,-2.682354212E0,1.406979680E0,8.949156761E0,9.447858100E0
3.134347450E-1,-2.610569477E0,1.354337573E0,9.159725189E0,9.620284237E0
3.158496930E-1,-2.581855536E0,1.265803218E0,9.449256897E0,9.877079108E0
3.182646410E-1,-2.581855536E0,1.189232826E0,9.810572624E0,1.021408772E1
3.206796410E-1,-2.560320139E0,1.119840980E0,1.018385315E1,1.056031003E1
3.230945890E-1,-2.555534601E0,1.055234790E0,1.051167011E1,1.086919896E1
3.255095890E-1,-2.522035122E0,1.007378340E0,1.076291656E1,1.110026330E1
3.279245370E-1,-2.486142635E0,9.595218897E-1,1.098066330E1,1.129940503E1
3.303394850E-1,-2.435893536E0,8.925228715E-1,1.110509014E1,1.140408705E1
3.327544850E-1,-2.378465652E0,8.015955687E-1,1.118405342E1,1.146222951E1
3.351694330E-1,-2.349751949E0,6.939185858E-1,1.124865913E1,1.151239287E1
3.375844330E-1,-2.388036966E0,5.886343718E-1,1.133001518E1,1.159389732E1
3.399993800E-1,-2.478964329E0,5.000999570E-1,1.141137123E1,1.168823158E1
3.424143280E-1,-2.574677229E0,4.115654826E-1,1.148554897E1,1.177778350E1
3.448293280E-1,-2.675175667E0,3.182454109E-1,1.153101254E1,1.184154108E1
3.472442760E-1,-2.763710260E0,2.177468538E-1,1.156211948E1,1.188983242E1
3.496592760E-1,-2.804388046E0,1.339980662E-1,1.158843994E1,1.192369440E1
3.520742240E-1,-2.782852650E0,7.657032460E-2,1.161476135E1,1.194373531E1
3.544892240E-1,-2.742174864E0,1.435693540E-2,1.161954689E1,1.193874361E1
3.569041720E-1,-2.689532757E0,-1.196411345E-2,1.163868904E1,1.194540967E1
3.593191200E-1,-2.651247501E0,-2.632104978E-2,1.166022491E1,1.195786984E1
3.617341200E-1,-2.589034081E0,-5.742774159E-2,1.168654537E1,1.197003501E1
3.641490680E-1,-2.555534601E0,-5.024927482E-2,1.170329571E1,1.197916577E1
3.665640680E-1,-2.555534601E0,-1.674975827E-2,1.172243786E1,1.199777425E1
3.689790160E-1,-2.529213428E0,1.196411345E-2,1.177508068E1,1.204365346E1
3.713939640E-1,-2.510071039E0,7.178468257E-2,1.183729362E1,1.210070783E1
3.738089640E-1,-2.495713949E0,1.483550072E-1,1.188036442E1,1.214057890E1
3.762239120E-1,-2.445464849E0,2.512463629E-1,1.188754272E1,1.213907307E1
3.786389120E-1,-2.426322222E0,3.756731451E-1,1.186361504E1,1.211501265E1
3.810538600E-1,-2.388036966E0,5.192425251E-1,1.184207916E1,1.209161578E1
3.834688600E-1,-2.395215511E0,6.915257573E-1,1.181575775E1,1.207590148E1
3.858838080E-1,-2.450250387E0,8.255237937E-1,1.179422283E1,1.207430779E1
3.882987550E-1,-2.510071039E0,9.595218897E-1,1.180857944E1,1.211047841E1
3.907137550E-1,-2.584248543E0,1.021735311E0,1.175354481E1,1.207758664E1
3.931287030E-1,-2.636890650E0,1.052842021E0,1.166740322E1,1.200791266E1
3.955437030E-1,-2.689532757E0,1.088734269E0,1.154776192E1,1.190670962E1
3.979586510E-1,-2.756531715E0,1.127019525E0,1.141615677E1,1.179818950E1
4.003735990E-1,-2.837887764E0,1.107876897E0,1.128694439E1,1.169085591E1
4.027885990E-1,-2.919243574E0,1.086341500E0,1.112423229E1,1.155208488E1
4.052035470E-1,-3.014956474E0,1.067198873E0,1.093041420E1,1.138871505E1
4.076185470E-1,-3.110669374E0,1.045663476E0,1.069830990E1,1.119033113E1
4.100334950E-1,-3.144168854E0,1.040877819E0,1.045663452E1,1.096861112E1
4.124484430E-1,-3.108276606E0,9.954141974E-1,1.017188931E1,1.068267592E1
4.148634430E-1,-3.038884640E0,9.571290612E-1,9.934999466E0,1.043336620E1
4.172783910E-1,-3.218346357E0,9.068797827E-1,9.506684303E0,1.007756075E1
4.196933910E-1,-3.665804386E0,8.279166222E-1,8.784051895E0,9.554220817E0
4.221083390E-1,-3.720839262E0,7.872386575E-1,7.812565804E0,8.689106626E0
4.245232870E-1,-3.560520172E0,7.728816867E-1,6.417550564E0,7.379675144E0
4.269382870E-1,-3.227917671E0,8.662018180E-1,4.783252239E0,5.835174382E0
4.293532350E-1,-2.902493954E0,1.036092162E0,3.287738323E0,4.506349010E0
4.317682350E-1,-2.770888567E0,1.268195987E0,2.225325108E0,3.773356112E0
4.341831830E-1,-3.029313564E0,1.471585870E0,1.746760488E0,3.793873725E0
4.365981300E-1,-3.572484255E0,1.615155339E0,1.572084427E0,4.224076226E0
4.390131300E-1,-4.173082829E0,1.674975872E0,1.531406522E0,4.750302138E0
4.414280780E-1,-4.725824833E0,1.732403636E0,1.624726534E0,5.289081113E0
4.438430780E-1,-5.048855782E0,1.761117458E0,1.852044702E0,5.658846966E0
4.462580260E-1,-5.111069202E0,1.773081541E0,2.232503414E0,5.852428388E0
4.486729740E-1,-4.589433670E0,1.825723648E0,2.565105915E0,5.565602987E0
4.510879740E-1,-3.448057413E0,1.911865234E0,2.596212626E0,4.720661881E0
4.535029220E-1,-1.232303619E0,2.019542217E0,2.572284460E0,3.494820499E0
4.559179220E-1,2.105684042E0,2.134397745E0,2.744567633E0,4.064752208E0
4.583328700E-1,5.728417397E0,2.323430777E0,3.105883837E0,6.918064097E0
4.607478700E-1,8.315058708E0,2.538784742E0,3.457628727E0,9.356325438E0
4.631628180E-1,8.738588333E0,2.622533560E0,4.053441525E0,9.983536273E0
4.655777660E-1,6.900900364E0,2.538784742E0,5.190032482E0,9.000238384E0
4.679927660E-1,3.560520172E0,2.352144718E0,6.704689026E0,7.947499204E0
4.704077140E-1,9.810572863E-2,2.179861546E0,8.078168869E0,8.367689847E0
4.728227140E-1,-2.464607239E0,2.100898266E0,9.119047165E0,9.677038987E0
4.752376620E-1,-4.060619831E0,2.136790514E0,9.846465111E0,1.086312028E1
4.776526100E-1,-4.807180882E0,2.263610125E0,1.034417248E1,1.162905082E1
4.800676100E-1,-5.216353416E0,2.256431818E0,1.050927734E1,1.194766663E1
4.824825580E-1,-5.400600910E0,2.220539331E0,1.060499001E1,1.210632472E1
4.848975580E-1,-5.230710506E0,2.232503414E0,1.070788097E1,1.212448427E1
4.873125050E-1,-4.795216560E0,2.294716835E0,1.082752228E1,1.206213355E1
4.897275050E-1,-4.132404804E0,2.361716032E0,1.082991505E1,1.182968858E1
4.921424530E-1,-3.354737282E0,2.433500528E0,1.070309544E1,1.147747529E1
4.945574010E-1,-2.593819857E0,2.500499725E0,1.051406288E1,1.111422146E1
4.969724010E-1,-1.902294040E0,2.512463808E0,1.030110168E1,1.077236710E1
4.993873490E-1,-1.356730461E0,2.447857618E0,1.005464077E1,1.043688294E1
5.018023490E-1,-1.012163997E0,2.335394859E0,9.858428955E0,1.018170745E1
5.042172970E-1,-9.499505758E-1,2.199003935E0,9.635896683E0,9.929175660E0
5.066322450E-1,-1.186840057E0,2.053041935E0,9.322437286E0,9.619324689E0
5.090472450E-1,-1.545763373E0,1.899901152E0,8.920442581E0,9.250584016E0
5.114621930E-1,-1.942971945E0,1.758724689E0,8.520841599E0,8.914762703E0
5.138771930E-1,-2.270788670E0,1.615155339E0,8.161917686E0,8.624506263E0
5.162921410E-1,-2.545963287E0,1.390229940E0,7.781459332E0,8.304563666E0
5.187070890E-1,-2.751745939E0,1.067198873E0,7.274180889E0,7.850141830E0
5.211220890E-1,-2.864208698E0,9.690931439E-1,6.922435760E0,7.554002240E0
5.235370370E-1,-2.866601467E0,9.571290612E-1,6.666403770E0,7.319456212E0
5.259520370E-1,-2.818745136E0,9.619147182E-1,6.470192432E0,7.122779948E0
5.283669850E-1,-2.746960402E0,9.571290612E-1,6.333801746E0,6.969858826E0
5.307819330E-1,-2.646461725E0,9.738788009E-1,6.252445698E0,6.858955954E0
5.331969330E-1,-2.574677229E0,9.738788009E-1,6.195017815E0,6.779059557E0
5.356118800E-1,-2.651247501E0,9.714859724E-1,6.125626087E0,6.745086602E0
5.380268800E-1,-2.871387243E0,9.930213690E-1,6.087340832E0,6.803431086E0
5.404418280E-1,-3.031706333E0,1.000199914E0,6.037091732E0,6.829210770E0
5.428567760E-1,-3.187239647E0,9.858429432E-1,5.986842155E0,6.853660472E0
5.452717760E-1,-3.270988464E0,9.834501147E-1,6.001199245E0,6.905138090E0
5.476867240E-1,-3.385843992E0,1.016949654E0,6.070590973E0,7.024969815E0
5.501017240E-1,-3.433700562E0,1.014556766E0,6.108876228E0,7.080818720E0
5.525166720E-1,-3.455235958E0,1.024128079E0,6.135197163E0,7.115345253E0
5.549316720E-1,-3.448057413E0,1.007378340E0,6.118447304E0,7.095019975E0
5.573466200E-1,-3.443271875E0,9.690931439E-1,6.061019897E0,7.037842349E0
5.597615680E-1,-3.519842148E0,8.973084688E-1,6.003592014E0,7.016948647E0
5.621765680E-1,-3.668197155E0,8.231309652E-1,5.972485542E0,7.057180634E0
5.645915160E-1,-3.802195072E0,7.393822074E-1,5.974878311E0,7.120571905E0
5.670064640E-1,-3.878765583E0,6.652047038E-1,6.027520180E0,7.198494236E0
5.694214640E-1,-3.962514400E0,6.293123364E-1,6.092126369E0,7.294625288E0
5.718364120E-1,-3.943371773E0,5.958128572E-1,6.128018856E0,7.311483365E0
5.742514120E-1,-3.692125320E0,6.029912829E-1,6.137589931E0,7.187864637E0
5.766663600E-1,-3.357130051E0,5.886343718E-1,6.161518097E0,7.041386075E0
5.790813600E-1,-2.904886723E0,5.240281820E-1,6.197410583E0,6.864464316E0
5.814963080E-1,-2.524427891E0,4.354937077E-1,6.264409542E0,6.767955220E0
5.839112550E-1,-2.349751949E0,3.278166950E-1,6.384050846E0,6.810646314E0
5.863262550E-1,-2.364108801E0,1.866401732E-1,6.556334019E0,6.972041361E0
5.887412030E-1,-2.526820660E0,3.110669367E-2,6.795616150E0,7.250254418E0
5.911562030E-1,-2.845066071E0,-1.818545163E-1,7.051648140E0,7.606129995E0
5.935711510E-1,-3.170490026E0,-4.019941986E-1,7.336394310E0,8.002267667E0
5.959860990E-1,-3.479164124E0,-6.053841114E-1,7.637889862E0,8.414774772E0
5.984010990E-1,-3.684946775E0,-7.968099117E-1,7.927421570E0,8.778254469E0
6.008160470E-1,-3.797409534E0,-9.451649189E-1,8.161917686E0,9.051549935E0
6.032310470E-1,-3.835694790E0,-1.067198873E0,8.386843681E0,9.283890073E0
6.056459950E-1,-3.766302824E0,-1.105484009E0,8.587840080E0,9.442358238E0
6.080609430E-1,-3.615555048E0,-1.105484009E0,8.733802795E0,9.517018675E0
6.104759430E-1,-3.455235958E0,-1.122233868E0,8.805587769E0,9.525567717E0
6.128908910E-1,-3.311666489E0,-1.110269666E0,8.793622971E0,9.461904597E0
6.153058910E-1,-3.194418192E0,-1.100698471E0,8.724231720E0,9.355643421E0
6.177208390E-1,-3.041277647E0,-1.064806104E0,8.592626572E0,9.176950101E0
6.201357870E-1,-2.861815929E0,-1.045663476E0,8.405985832E0,8.941140885E0
6.225507870E-1,-2.610569477E0,-1.148554921E0,8.164310455E0,8.648133707E0
6.249657350E-1,-2.426322222E0,-1.347159147E0,7.831708431E0,8.308882852E0
6.273807350E-1,-2.510071039E0,-1.663011789E0,7.523034573E0,8.103216276E0
6.297956830E-1,-2.873780012E0,-2.055434704E0,7.355536938E0,8.160107047E0
6.322106830E-1,-3.371487141E0,-2.474178553E0,7.288537979E0,8.403051286E0
6.346256300E-1,-3.842873096E0,-2.852244616E0,7.171289444E0,8.621505975E0
6.370405780E-1,-4.158725739E0,-3.148954630E0,6.943971157E0,8.685024494E0
6.394555780E-1,-4.189832687E0,-3.424129248E0,6.577869415E0,8.517495236E0
6.418705260E-1,-3.991228104E0,-3.639483213E0,6.063412666E0,8.120388722E0
6.442854740E-1,-3.661018610E0,-3.799802303E0,5.505885124E0,7.626029492E0
6.467004740E-1,-3.263810158E0,-3.905086517E0,5.048855782E0,7.168898253E0
6.491154220E-1,-2.916850805E0,-3.984049797E0,4.735395908E0,6.841392096E0
6.515304220E-1,-2.634497643E0,-4.125226021E0,4.536791801E0,6.673870496E0
6.539453700E-1,-2.445464849E0,-4.295116425E0,4.395615101E0,6.614359799E0
6.563603700E-1,-2.371287346E0,-4.500899315E0,4.225724697E0,6.613459574E0
6.587753180E-1,-2.352144718E0,-4.742574692E0,4.063013077E0,6.673280658E0
6.611902660E-1,-2.371287346E0,-4.962714195E0,3.905086517E0,6.745460442E0
6.636052660E-1,-2.385644197E0,-5.151747227E0,3.751945972E0,6.805064019E0
6.660202140E-1,-2.419143677E0,-5.331208706E0,3.625126362E0,6.885897439E0
6.684351620E-1,-2.474178553E0,-5.469992638E0,3.565305710E0,6.982390978E0
6.708501620E-1,-2.584248543E0,-5.620740414E0,3.543770313E0,7.129472025E0
6.732651100E-1,-2.761317253E0,-5.711667538E0,3.579662561E0,7.284367034E0
6.756801100E-1,-2.969492912E0,-5.778666496E0,3.634697676E0,7.444588761E0
6.780950580E-1,-3.213560820E0,-5.812166214E0,3.735196114E0,7.619707294E0
6.805100580E-1,-3.460021496E0,-5.840879917E0,3.890729666E0,7.824666401E0
6.829250050E-1,-3.732803345E0,-5.840879917E0,4.086941242E0,8.046911689E0
6.853399530E-1,-4.010370731E0,-5.843272686E0,4.331008911E0,8.305693666E0
6.877549530E-1,-4.307080746E0,-5.850451469E0,4.606183529E0,8.602072637E0
6.901699010E-1,-4.625326157E0,-5.833701611E0,4.910071850E0,8.918212944E0
6.925849010E-1,-4.926821709E0,-5.812166214E0,5.197210789E0,9.223114888E0
6.949998490E-1,-5.230710506E0,-5.785845280E0,5.520241737E0,9.555595578E0
6.974147970E-1,-5.522634506E0,-5.771488190E0,5.852844238E0,9.902795236E0
6.998297970E-1,-5.879165173E0,-5.737988472E0,6.171089649E0,1.027479646E1
7.022447450E-1,-6.235695839E0,-5.702096462E0,6.525227547E0,1.067597308E1
