Time (s),Acceleration x (m/s^2),Acceleration y (m/s^2),Acceleration z (m/s^2),Absolute acceleration (m/s^2),Activity
91.81351597,-0.009571290575,-0.8063812256,-0.1818545163,0.8266881853,
91.81593097,-0.1411765367,-0.8327022791,-0.2009970993,0.8681726407,
91.81834592,-0.2344966233,-0.8518448472,-0.2081755698,0.9077253868,
91.82076092,-0.3493520916,-0.866201818,-0.2153540403,0.9585039572,
91.82317587,-0.4402793646,-0.8805587292,-0.2344966233,1.012036689,
91.82559087,-0.5144568682,-0.9188438654,-0.2656033039,1.086040991,
91.82800581,-0.5670989752,-0.9643075466,-0.313459754,1.161786258,
91.83042081,-0.6101697683,-1.000199914,-0.3541377485,1.223977352,
91.83283576,-0.6556333899,-1.00737834,-0.3708875179,1.257864783,
91.83525076,-0.6580262184,-1.000199914,-0.3852444589,1.257700944,
91.83766571,-0.6293123364,-1.040877819,-0.4115654826,1.284074296,
91.84008071,-0.5910272002,-1.074377418,-0.4139583111,1.294203025,
91.84249566,-0.5288137794,-1.095912814,-0.409172684,1.283780041,
91.84491066,-0.457029134,-1.122233868,-0.4067798555,1.278183998,
91.8473256,-0.4211367965,-1.184447169,-0.4163511395,1.324243018,
91.8497406,-0.390030086,-1.201196909,-0.433100909,1.33513066,
91.85215555,-0.390030086,-1.217946768,-0.4163511395,1.344940916,
91.8545705,-0.4163511395,-1.227517962,-0.418743968,1.362165603,
91.8569855,-0.4354937077,-1.225125194,-0.4115654826,1.363808145,
91.85940045,-0.4139583111,-1.234696507,-0.418743968,1.36791208,
91.86181545,-0.4163511395,-1.258624673,-0.4378865361,1.396147899,
91.8642304,-0.4211367965,-1.280160069,-0.4259224236,1.413356259,
91.8666454,-0.4259224236,-1.299302697,-0.4402793646,1.436469049,
91.86906034,-0.404387027,-1.335195065,-0.4666004181,1.471050875,
91.87147534,-0.3828516304,-1.34237349,-0.4977070987,1.481976489,
91.87389029,-0.3780659735,-1.354337573,-0.5192425251,1.498925262,
91.87630529,-0.3780659735,-1.35912323,-0.5575276613,1.516900434,
91.87872024,-0.3637090325,-1.392622828,-0.5958128572,1.557779048,
91.88113524,-0.3732803464,-1.414158225,-0.6173482537,1.587545454,
91.88355019,-0.3732803464,-1.445264935,-0.6436693072,1.625558097,
91.88596519,-0.380458802,-1.478764415,-0.6675975323,1.666487192,
91.88838014,-0.3828516304,-1.509871125,-0.6915257573,1.704257627,
91.89079514,-0.4259224236,-1.540977836,-0.7417750359,1.762456469,
91.89321008,-0.4235295951,-1.572084427,-0.7704889178,1.801243997,
91.89562508,-0.4474578202,-1.639083505,-0.7944171429,1.875609723,
91.89804003,-0.4977070987,-1.703689694,-0.8350951076,1.961543976,
91.90045503,-0.5288137794,-1.777867198,-0.890130043,2.05737388,
91.90286998,-0.5479564071,-1.847259045,-0.9332008362,2.140907752,
91.90528498,-0.5838487148,-1.957328916,-0.9978070259,2.273243204,
91.90769993,-0.6340979934,-2.072184324,-1.067198873,2.415562372,
91.91011493,-0.6915257573,-2.196611166,-1.15094769,2.574488119,
91.91252988,-0.7010970116,-2.344966173,-1.232303619,2.740251007,
91.91494482,-0.7178468108,-2.517249346,-1.306481123,2.925532642,
91.91735982,-0.8207381964,-2.715853691,-1.392622828,3.160517489,
91.91977477,-0.866201818,-2.94317174,-1.517049551,3.422572836,
91.92218977,-0.9284151793,-3.199203968,-1.636690736,3.711551877,
91.92460472,-1.050449133,-3.46959281,-1.773081541,4.03550936,
91.92701972,-1.160519004,-3.806980848,-1.914258122,4.416366345,
91.92943467,-1.251446247,-4.237689018,-2.086541414,4.88648964,
91.93184967,-1.39022994,-4.68275404,-2.27078867,5.386780659,
91.93426462,-1.526620865,-5.168497086,-2.49332118,5.938062302,
91.93667962,-1.684547186,-5.733202934,-2.744567633,6.575710349,
91.93909456,-1.761117458,-6.393621922,-3.031706333,7.291857052,
91.94150956,-2.050648928,-7.202396393,-3.357130051,8.206704393,
91.94392451,-2.373680115,-8.147561073,-3.704089403,9.259448528,
91.94633951,-2.73260355,-9.123832703,-4.074976921,10.35938619,
91.94875446,-3.043670416,-10.21017456,-4.448257446,11.54550079,
91.95116946,-3.43609333,-11.38265705,-4.869394302,12.84844815,
91.95358441,-3.938585997,-12.62692547,-5.295316696,14.2475291,
91.95599941,-4.534399033,-13.89512062,-5.723631859,15.69697784,
91.95841435,-5.063212872,-15.25903034,-6.21894598,17.23802253,
91.96082935,-5.534598827,-16.64925957,-6.776473522,18.80824877,
91.9632443,-6.056233883,-18.12563133,-7.24307394,20.4371867,
91.9656593,-6.491727829,-19.69532394,-7.618747234,22.09284103,
91.96807425,-6.709474564,-21.32962036,-8.099704742,23.78182017,
91.97048925,-6.831508636,-22.8897419,-8.602197647,25.38912363,
91.9729042,-6.798008919,-24.3708992,-9.116654396,26.89362453,
91.97531915,-6.48933506,-25.86641312,-9.652647018,28.36117754,
91.97773415,-6.008377552,-27.24228668,-10.14317513,29.68377985,
91.98014915,-5.331208706,-28.57030296,-10.60020447,30.93619777,
91.98256409,-4.610969067,-29.69732094,-10.95673466,31.98815313,
91.98497904,-3.845266104,-30.49891663,-11.04048347,32.66285753,
91.98739404,-3.036491871,-31.07558823,-11.00459099,33.10609444,
91.98980899,-2.409572363,-31.45843887,-10.7605238,33.33509094,
91.99222399,-1.9812572,-31.61875916,-10.30349445,33.31416078,
91.99463894,-1.710868239,-31.55654526,-9.705288887,33.05957125,
91.99705394,-1.409372568,-31.3603344,-9.037691116,32.66705933,
91.99946888,-1.574477315,-30.61137962,-8.46102047,31.79818247,
92.00188389,-0.7776673436,-30.3577404,-7.726424217,31.33520065,
92.00429883,-0.5383850932,-29.56571579,-6.707081795,30.32171425,
92.00671383,-0.1555334777,-28.94597626,-5.824130535,29.52650045,
92.00912878,-0.3062812984,-28.00559616,-5.108676434,28.46938355,
92.01154378,-0.3230310678,-27.06521606,-4.701896667,27.47249719,
92.01395873,0.03349951655,-26.41436958,-4.130012035,26.73531451,
92.01637373,-0.03349951655,-25.55773926,-3.742374659,25.83030248,
92.01878868,0.03110669367,-24.92124748,-3.531806231,25.17028405,
92.02120368,-0.05503492057,-24.28954315,-3.388236761,24.52478509,
92.02361863,-0.1746760458,-23.75115776,-3.419343472,23.99666469,
92.02603363,-0.2368894368,-23.24627113,-3.524627686,23.51315033,
92.02844857,-0.1579262912,-22.84906387,-3.653840065,23.1399051,
92.03086352,-0.08135596663,-22.53081894,-3.833301783,22.85472869,
92.03327852,-0.0143569354,-22.2628212,-4.101297855,22.63744813,
92.03569347,0.09810572863,-21.98286247,-4.419543266,22.42293981,
92.03810847,0.1986042857,-21.7483654,-4.701896667,22.2517117,
92.04052342,0.2153540403,-21.52583313,-4.943571568,22.08725354,
92.04293842,0.2919243574,-21.30569267,-5.199603558,21.93293499,
92.04535337,0.3684946895,-21.07837486,-5.441278458,21.77248691,
92.04776837,0.3924229145,-20.86780548,-5.594419479,21.60825839,
92.05018331,0.3972085714,-20.60698891,-5.694917679,21.38312077,
92.05259831,0.3780659735,-20.33659935,-5.788238049,21.14766906,
92.05501326,0.390030086,-20.09731674,-5.8983078,20.9486109,
92.05742826,0.471386075,-19.84846306,-5.960521221,20.72948393,
92.05984321,0.5599204898,-19.50629044,-6.025127411,20.42329645,
92.06225821,0.6891329288,-19.17368698,-6.075376511,20.12499382,
92.06467316,0.8853443861,-18.86740685,-6.130411625,19.85811729,
92.06708816,0.9834501147,-18.46302032,-6.178267956,19.49413472,
92.0695031,1.11984098,-17.99881172,-6.195017815,19.06802331,
92.0719181,1.241874933,-17.68056679,-6.195017815,18.77559429,
92.07433305,1.32801652,-17.14936066,-6.072983742,18.24130835,
92.076748,1.497906923,-16.57986832,-6.020341873,17.70254995,
92.079163,1.526620865,-16.02951813,-5.986842155,17.17900759,
92.08157795,1.485942841,-15.46481228,-5.907878876,16.62141624,
92.08399295,1.476371527,-14.88335705,-5.800201893,16.04170602,
92.0864079,1.533799291,-14.29950809,-5.62791872,15.44350806,
92.0888229,1.538584948,-13.70130253,-5.493920803,14.8417014,
92.09123784,1.581655741,-13.08395386,-5.350351334,14.22384416,
92.09365284,1.677368641,-12.50249863,-5.206781864,13.64685366,
92.09606779,1.698904037,-11.84447193,-4.91007185,12.93393196,
92.09848279,1.708475351,-10.9615202,-4.158725739,11.8477345,
92.10089774,1.782652855,-10.01874828,-3.201596737,10.66786717,
92.10331274,1.873580098,-9.229117393,-2.615355253,9.773791145,
92.10572769,1.966900229,-8.700303078,-2.390429735,9.234615556,
92.10814269,2.053041935,-8.394021988,-2.469393015,8.987351567,
92.11055764,2.050648928,-8.260024071,-3.041277647,9.037838702,
92.11297264,1.993221283,-8.200202942,-3.806980848,9.257935113,
92.11538758,1.95015049,-8.166703224,-4.658825874,9.602228232,
92.11780258,1.823330879,-8.039883614,-5.486742496,9.902959519,
92.12021753,1.706082582,-7.7838521,-6.101697922,10.03642311,
92.12263253,1.708475351,-7.482356548,-6.48933506,10.05067247,
92.12504748,1.909472466,-7.219145775,-6.661618233,10.00696299,
92.12746248,1.947757602,-6.80997324,-6.575476646,9.664698047,
92.12987743,1.830509305,-6.352943897,-6.47497797,9.25397213,
92.13229243,1.765903115,-5.965306759,-6.352943897,8.891748686,
92.13470738,1.763510346,-5.568098068,-6.240481377,8.547355887,
92.13712238,1.756331801,-5.175675392,-6.082555294,8.177395433,
92.13953732,1.689332843,-4.790431023,-5.903093338,7.787720192,
92.14195232,1.481157184,-4.429114819,-5.766702652,7.420629633,
92.14436727,1.251446247,-4.063013077,-5.718846321,7.125966336,
92.14678227,0.9978070259,-3.763910055,-5.615954876,6.833855934,
92.14919722,0.7944171429,-3.462414265,-5.503491879,6.550407162,
92.15161217,0.5838487148,-3.172882795,-5.359922886,6.255944205,
92.15402717,0.3302095234,-2.935993433,-5.185246468,5.967903878,
92.15644212,0.1244267747,-2.766103029,-5.020142078,5.733117344,
92.15885712,0.02153540403,-2.612962246,-4.811966419,5.475678615,
92.16127206,-0.1124626622,-2.438286304,-4.570291042,5.181259322,
92.16368706,-0.2512463629,-2.249253273,-4.395615101,4.944056749,
92.16610201,-0.4067798555,-2.043470621,-4.314259052,4.791040931,
92.16851701,-0.471386075,-1.828116536,-4.26879549,4.66763643,
92.17093196,-0.5024927258,-1.631905079,-4.273581028,4.60207648,
92.17334696,-0.5144568682,-1.464407444,-4.259224415,4.533227068,
92.17576191,-0.5359922647,-1.308874011,-4.15633297,4.390392083,
92.17817691,-0.5551348329,-1.191625714,-3.998406649,4.208966887,
92.18059185,-0.524028182,-1.079162955,-3.840480328,4.023491937,
92.18300685,-0.4163511395,-0.9619147182,-3.641875982,3.789708283,
92.1854218,-0.313459754,-0.8853443861,-3.445664644,3.571371801,
92.1878368,-0.2249253243,-0.8111668825,-3.203989506,3.312722727,
92.19025175,-0.1818545163,-0.7345965505,-2.92402935,3.020372626,
92.19266675,-0.1770688742,-0.6532405615,-2.639283419,2.72468229,
92.1950817,-0.2177468538,-0.5934200287,-2.407179594,2.48878979,
92.1974967,-0.2440679073,-0.524028182,-2.194218397,2.269089917,
92.19991165,-0.2416750938,-0.4546363056,-2.009970903,2.074869647,
92.20232665,-0.2201396823,-0.3756731451,-1.85443759,1.904870223,
92.20474159,-0.1746760458,-0.3254238665,-1.722832322,1.761977192,
92.20715654,-0.08374879509,-0.2608176768,-1.603191137,1.626426003,
92.20957154,0.009571290575,-0.2225325108,-1.476371527,1.493079105,
92.21198649,0.1076770201,-0.1842473447,-1.363908887,1.380503124,
92.21440149,0.1555334777,-0.1531406492,-1.26341033,1.282126508,
92.21681649,0.1627119333,-0.1052841991,-1.172483087,1.188392412,
92.21923144,0.1220339537,-0.05742774159,-1.107876897,1.116056204,
92.22164638,0.08853443712,-0.04546362907,-1.031306505,1.036097677,
92.22406138,0.05742774159,-0.02871387079,-0.9810572863,0.9831560562,
92.22647633,0.03589234129,-0.007178467698,-0.9403793216,0.941091419,
92.22889133,0.04067798331,-0.01674975827,-0.9092726111,0.9103361654,
92.23130628,0.03110669367,-0.01674975827,-0.8733802438,0.8740945206,
92.23372128,0.05024927482,0.0,-0.8183453679,0.8198866573,
92.23613623,0.08135596663,0.007178467698,-0.7872386575,0.7914638511,
92.23855123,0.0933200866,-0.007178467698,-0.7585247755,0.7642774392,
92.24096618,0.09571290761,0.0,-0.7130611539,0.7194561626,
92.24338118,0.07417750359,-0.007178467698,-0.6723831892,0.6765005436,
92.24579613,0.08853443712,-0.01196411345,-0.6221339107,0.6285157829,
92.24821113,0.06939185411,-0.03110669367,-0.5479564071,0.5532079897,
92.25062607,0.03349951655,-0.03349951655,-0.4761717021,0.4785226485,
92.25304107,0.0239282269,-0.03349951655,-0.4163511395,0.4183814636,
92.25545602,-0.02153540403,-0.04307080805,-0.3637090325,0.3668829902,
92.25787102,-0.06221338734,-0.05503492057,-0.3110669553,0.3219658347,
92.26028597,-0.1124626622,-0.06939185411,-0.2536391914,0.2859998588,
92.26270097,-0.1674975902,-0.08853443712,-0.2033899277,0.2779590833,
92.26511592,-0.2129612118,-0.1172483116,-0.1531406492,0.2873181212,
92.26753092,-0.2656033039,-0.1651047617,-0.1124626622,0.3323440202,
92.26994587,-0.2871387303,-0.2153540403,-0.08853443712,0.3696814299,
92.27236081,-0.3062812984,-0.2440679073,-0.06939185411,0.3977343417,
92.27477581,-0.3254238665,-0.2967100143,-0.06460621208,0.4450971671,
92.27719076,-0.3230310678,-0.3254238665,-0.07178468257,0.4641150766,
92.27960576,-0.3254238665,-0.4163511395,-0.09571290761,0.5370381038,
92.28202071,-0.327816695,-0.5144568682,-0.1387837082,0.6256121581,
92.28443571,-0.2991028428,-0.5934200287,-0.1579262912,0.6830450604,
92.28685066,-0.3254238665,-0.679561615,-0.2129612118,0.7829796672,
92.28926566,-0.342173636,-0.7489534616,-0.2488535494,0.8601989153,
92.2916806,-0.3014956415,-0.8327022791,-0.3158525825,0.9402422886,
92.2940956,-0.2608176768,-0.9092726111,-0.3756731451,1.017807867,
92.29651055,-0.2967100143,-0.9499505758,-0.4211367965,1.080647551,
92.29892555,-0.3158525825,-1.03848505,-0.4881358147,1.190164118,
92.3013405,-0.3086741269,-1.115055323,-0.5527420044,1.282244833,
92.3037555,-0.3445664644,-1.201196909,-0.6149554253,1.392756345,
92.30617045,-0.3326023519,-1.284945726,-0.6939185858,1.497742584,
92.30858545,-0.3589234054,-1.421336651,-0.7465606928,1.645106913,
92.3110004,-0.3972085714,-1.531406522,-0.8183453679,1.781198957,
92.3134154,-0.4307080805,-1.696511269,-0.8973084688,1.966932237,
92.31583034,-0.4689932466,-1.823330879,-0.9978070259,2.130753158,
92.31824534,-0.5216353536,-1.988435626,-1.10309124,2.332978775,
92.32066029,-0.5599204898,-2.218146563,-1.213161111,2.589487403,
92.32307529,-0.5814558864,-2.464607239,-1.337587833,2.863829779,
92.32549024,-0.6077769399,-2.706282377,-1.445264935,3.127642538,
92.32790524,-0.6436693072,-2.964707375,-1.586441398,3.423535643,
92.33032019,-0.6412764788,-3.259024382,-1.751546144,3.755048513,
92.33273519,-0.7010970116,-3.548556089,-1.947757602,4.108229182,
92.33515014,-0.7728816867,-3.8668015,-2.155933142,4.494168183,
92.33756514,-0.8255237937,-4.249652863,-2.433500528,4.966182015,
92.33998008,-0.8997012973,-4.656432629,-2.742174864,5.478261607,
92.34239503,-0.9643075466,-5.099104881,-3.08434844,6.036883711,
92.34481003,-1.048056364,-5.618347645,-3.538984776,6.722251531,
92.34722498,-1.172483087,-6.163911343,-4.079762459,7.484182076,
92.34963998,-1.337587833,-6.754938126,-4.776073933,8.380287137,
92.35205493,-1.500299811,-7.4010005,-5.690132141,9.455332448,
92.35446993,-1.627119422,-8.149953842,-6.754938126,10.70973643,
92.35688488,-1.624726534,-9.109476089,-7.958528042,12.20493587,
92.35929988,-1.639083505,-10.11924744,-9.176474571,13.75839558,
92.36171482,-1.713261008,-11.08833981,-10.19581699,15.1605154,
92.36412982,-1.770688772,-11.99522018,-10.78445148,16.22729305,
92.36654477,-1.844866276,-12.71067429,-10.81316566,16.78955997,
92.36895977,-1.914258122,-13.34716511,-10.39442158,17.02513438,
92.37137472,-1.976471543,-13.87597847,-9.738788605,17.06731443,
92.37378972,-2.002792597,-14.35454273,-8.965906143,17.04263912,
92.37620467,-2.000399828,-14.81396484,-8.26241684,17.07989127,
92.37861967,-2.165504456,-15.23270893,-7.566105366,17.14557614,
92.38103462,-2.292324066,-15.6873455,-7.044469833,17.34854789,
92.38344962,-2.383251429,-16.15394592,-6.623332977,17.62096467,
92.38586456,-2.419143677,-16.65643883,-6.285944939,17.96670015,
92.38827956,-2.665604353,-17.01057625,-5.876772404,18.1934495,
92.39069451,-2.775674343,-17.4436779,-5.570491314,18.52070842,
92.39310951,-2.931207657,-17.9461689,-5.393422127,18.9669702,
92.39552446,-3.125026464,-18.41755676,-5.278566837,19.41225014,
92.39793946,-3.249453068,-18.86262131,-5.266602516,19.85181427,
92.40035441,-3.452843189,-19.24068642,-5.271388054,20.2463249,
92.40276935,-3.56530571,-19.69532394,-5.376672268,20.7250041,
92.40518435,-3.605983734,-20.15713882,-5.635097504,21.23835418,
92.4075993,-3.558127165,-20.66202354,-5.998806477,21.80745664,
92.4100143,-3.352344513,-21.27219391,-6.477370739,22.48779178,
92.41242925,-3.08434844,-22.02114677,-6.991827965,23.30943519,
92.41484425,-2.821137905,-22.90170479,-7.537391186,24.27466101,
92.4172592,-2.624926329,-23.85404968,-8.080561638,25.32195492,
92.4196742,-2.376072884,-24.81357002,-8.657232285,26.38762305,
92.42208915,-2.194218397,-25.82573509,-9.255437851,27.52174263,
92.42450415,-2.172683001,-26.84029198,-9.726823807,28.63097844,
92.42691909,-2.234896421,-27.85006332,-10.12642574,29.71809697,
92.42933409,-2.218146563,-28.78087044,-10.38245773,30.67660519,
92.43174904,-2.160718918,-29.53700256,-10.5355978,31.43409053,
92.43416404,-2.177468538,-30.18067169,-10.45184898,32.01336377,
92.43657899,-2.218146563,-30.5946312,-10.30827999,32.36065927,
92.43899399,-2.507678032,-30.55395317,-10.12164021,32.28436315,
92.44140894,-1.945364833,-30.87937546,-9.84885788,32.47029834,
92.44382394,-1.562513232,-30.81476974,-9.181260109,32.1914122,
92.44623888,-1.356730461,-30.36252594,-8.69551754,31.61227174,
92.44865388,-1.045663476,-29.73321342,-8.377271652,30.90851134,
92.45106883,-0.5886343718,-28.92922592,-8.011170387,30.02374816,
92.45348383,-0.1124626622,-27.97927475,-7.611568928,28.99635227,
92.45589878,-0.04067798331,-26.68236542,-7.355536938,27.6776842,
92.45831378,0.6412764788,-25.65823746,-6.984649181,26.59965618,
92.46072873,0.9882357717,-24.4713974,-6.431907177,25.32183506,
92.46314368,1.03848505,-23.23191452,-6.096911907,24.0410615,
92.46555868,1.062413216,-22.06421852,-5.795416355,22.83736656,
92.46797362,1.067198873,-20.99223328,-5.393422127,21.70027128,
92.47038863,1.067198873,-19.99681854,-4.98903513,20.63739656,
92.47280357,1.021735311,-19.05165482,-4.622933388,19.63112344,
92.47521857,0.9810572863,-18.20698738,-4.275974274,18.72807569,
92.47763352,0.9499505758,-17.44606972,-3.964907169,17.91614477,
92.48004852,0.9738788009,-16.78804398,-3.684946775,17.215275,
92.48246347,1.004985452,-16.17787361,-3.416950703,16.56529935,
92.48487847,1.031306505,-15.59163189,-3.203989506,15.95080333,
92.48729342,1.002592683,-15.09631824,-2.993421078,15.42285922,
92.48970842,0.9284151793,-14.64168167,-2.871387243,14.94943683,
92.49212337,0.8566305041,-14.21815205,-2.816352367,14.51969366,
92.49453837,0.7896314859,-13.80897903,-2.799602509,14.11202303,
92.49695331,0.7752745152,-13.49551964,-2.770888567,13.79883779,
92.49936831,0.6987041831,-13.10309696,-2.730210543,13.40273805,
92.50178326,0.6723831892,-12.69631672,-2.70149684,12.99794763,
92.50419826,0.6460621357,-12.32064342,-2.734996319,12.63708256,
92.50661321,0.7465606928,-11.97129154,-2.742174864,12.30401142,
92.50902821,0.7800601721,-11.62911797,-2.70149684,11.96423686,
92.51144316,0.784845829,-11.27976608,-2.641676188,11.61152699,
92.51385816,0.7896314859,-10.9112711,-2.550748825,11.23323971,
92.5162731,0.7633104324,-10.54277611,-2.481357098,10.85771173,
92.5186881,0.7417750359,-10.21974564,-2.400001049,10.52394584,
92.52110305,0.7369893789,-9.913464546,-2.313859463,10.20656055,
92.52351805,0.7178468108,-9.590433121,-2.225325108,9.871361776,
92.525933,0.7274180651,-9.320044518,-2.182254314,9.599718785,
92.528348,0.7058826685,-8.970691681,-2.163111687,9.254762652,
92.53076295,0.7106683254,-8.685946465,-2.184647083,8.984620099,
92.53317795,0.7154539824,-8.355736732,-2.215753794,8.674086443,
92.5355929,0.7369893789,-8.049455643,-2.246860504,8.389593054,
92.53800784,0.7489534616,-7.743174076,-2.297109842,8.111374094,
92.54042284,0.7896314859,-7.432106972,-2.356930256,7.836762862,
92.54283779,0.8614161611,-7.11625433,-2.364108801,7.54798807,
92.54525279,0.866201818,-6.802794933,-2.361716032,7.253001248,
92.54766774,0.866201818,-6.467799664,-2.364108801,6.940587043,
92.55008274,0.8422735929,-6.135197163,-2.349751949,6.623549143,
92.55249769,0.7920243144,-5.850451469,-2.304288149,6.337572783,
92.55491269,0.8853443861,-5.548955917,-2.242074728,6.049929383,
