Time (s),Acceleration x (m/s^2),Acceleration y (m/s^2),Acceleration z (m/s^2),Absolute acceleration (m/s^2),Activity
94.99851084,-2.153517246,3.888614416,-2.559612274,5.129383355,
95.00051084,-2.095175505,3.986738443,-1.787989855,4.845694123,
95.00254052,-2.091603279,4.130581856,-0.9610996246,4.728659771,
95.00451084,-2.103746891,4.388131142,0.1379443258,4.868313315,
95.00651084,-2.153115273,4.855201721,1.952586412,5.658752763,
95.00851084,-2.182650089,5.190303802,3.309945583,6.531382299,
95.01051084,-2.19308877,5.532885075,4.856667042,7.681775209,
95.01251084,-2.194889069,5.723252773,5.825619698,8.456417988,
95.01451084,-2.159177303,5.892302513,6.637004852,9.134063112,
95.01651084,-2.108314991,6.091126919,7.493774891,9.884507138,
95.01851084,-2.04736805,6.234089375,7.979902744,10.33123584,
95.02051084,-1.962632418,6.36114502,8.330874443,10.6639374,
95.02251084,-1.830137372,6.53522253,8.622324944,10.97283116,
95.02451084,-1.70288074,6.643555164,8.719117165,11.09322461,
95.02651084,-1.568307519,6.756839275,8.695788383,11.12345275,
95.02851084,-1.381435156,6.875831127,8.523626328,11.03800809,
95.03051084,-1.238156557,6.962338448,8.301502228,10.90514225,
95.03251084,-1.018713713,7.040945053,7.927566051,10.65171293,
95.03451084,-0.8246301413,7.060156345,7.569565296,10.38384039,
95.03651084,-0.6167942286,7.046796322,7.159266472,10.0644359,
95.03851084,-0.3285802305,6.999132633,6.574266911,9.608163612,
95.04051084,-0.1185129881,6.933397293,6.105252266,9.239055611,
95.04251084,0.09757808596,6.847435951,5.65118742,8.878784818,
95.04451084,0.3903123438,6.695308685,5.063171387,8.403285465,
95.04651084,0.5941738486,6.547519207,4.603685856,8.026018551,
95.04851084,0.8128889203,6.398207188,4.146268845,7.667423879,
95.05051084,1.066932917,6.170834541,3.485900164,7.167220154,
95.05251084,1.262117743,5.965775967,2.968637705,6.782052337,
95.05451084,1.536732674,5.689332008,2.286156178,6.321119844,
95.05651084,1.724936128,5.480873585,1.796992064,6.020345536,
95.05851084,1.912526608,5.234174728,1.329806685,5.729112404,
95.06051084,2.147953272,4.897875786,0.7225221992,5.39675169,
95.06251084,2.301124811,4.655611515,0.2808302939,5.200842204,
95.06451084,2.447247505,4.425490379,-0.1269214153,5.058665288,
95.06651084,2.555456161,4.047168255,-0.6697252989,4.833058975,
95.06851084,2.534415722,3.67124033,-1.072267175,4.588139656,
95.07051084,2.430210352,3.290159941,-1.447601438,4.338965857,
95.07251084,2.271044016,2.829486847,-1.87546432,4.084238381,
95.07451084,2.136566401,2.529655933,-2.155595541,3.951033695,
95.07651084,2.03758049,2.257837534,-2.411104679,3.881106847,
95.07851084,1.907824516,1.892300367,-2.719372511,3.823033078,
95.08051084,1.778317213,1.630614161,-2.957298756,3.816664851,
95.08251084,1.5689013,1.292754054,-3.218343496,3.806625697,
95.08451084,1.393042326,1.035616755,-3.374071836,3.794394516,
95.08651084,1.203450322,0.7747828364,-3.511183023,3.791699796,
95.08851084,0.9146137834,0.4305348992,-3.643505573,3.78113892,
95.09051084,0.7087507248,0.1912296712,-3.727283716,3.798886716,
95.09251084,0.487765938,-0.0419655703,-3.799511909,3.830922535,
95.09451084,0.1961234212,-0.3303902447,-3.861138582,3.880207889,
95.09651084,-0.006196194328,-0.5331407785,-3.893067598,3.92940871,
95.09851084,-0.1997530311,-0.7293983102,-3.90977931,3.982247785,
95.10051084,-0.4078091681,-0.9559856057,-3.957203627,4.091415078,
95.10251084,-0.5494596958,-1.099407792,-4.00839138,4.192589284,
95.10451084,-0.6704913974,-1.255911946,-4.107913494,4.347623121,
95.10651084,-0.7442998886,-1.363612771,-4.212003708,4.489364916,
95.10851084,-0.7994431257,-1.463087082,-4.342191219,4.651274847,
95.11051084,-0.8434293866,-1.565520644,-4.519314289,4.856586215,
95.11251084,-0.8455745578,-1.636724114,-4.683307648,5.032616882,
95.11451084,-0.8498841524,-1.714899659,-4.812862873,5.179462612,
95.11651084,-0.8509280682,-1.844780326,-4.991259098,5.388873761,
95.11851084,-0.8558409214,-1.935530186,-5.093979836,5.5161011,
95.12051084,-0.8608208895,-2.035128832,-5.180181026,5.63178812,
95.12251084,-0.8855099082,-2.149447203,-5.238915443,5.731534358,
95.12451084,-0.9084175825,-2.250549555,-5.213221073,5.750466917,
95.12651084,-0.9576711059,-2.422577858,-5.130496502,5.753956185,
95.12851084,-0.9940534234,-2.539213657,-5.038061142,5.728682944,
95.13051084,-1.032245755,-2.657525539,-4.924863338,5.690540589,
95.13251084,-1.061091065,-2.802930117,-4.792195797,5.652209483,
95.13451084,-1.076797009,-2.90182972,-4.69868803,5.626524391,
95.13651084,-1.097425461,-2.985626936,-4.593017578,5.586959935,
95.13851084,-1.116492867,-3.079268932,-4.456251144,5.530517855,
95.14051084,-1.113648534,-3.125256777,-4.389338017,5.502156959,
95.14251084,-1.118188024,-3.150759697,-4.289288998,5.438348208,
95.14451084,-1.096036911,-3.16670537,-4.122834682,5.312916866,
95.14651084,-1.089993954,-3.15798068,-3.9681499,5.187209503,
95.14851084,-1.068838596,-3.194822788,-3.658684969,4.973457982,
95.15051084,-1.048641205,-3.228006363,-3.374043226,4.78579577,
95.15251084,-1.042128921,-3.273486614,-3.024173498,4.576829978,
95.15451084,-1.007480145,-3.360358,-2.476907015,4.294425513,
95.15651084,-0.9541755915,-3.474819899,-2.007557154,4.124937589,
95.15851084,-0.8508705497,-3.616039515,-1.489825606,4.002412123,
95.16051084,-0.6725791693,-3.808810949,-0.6610965729,3.923831325,
95.16251084,-0.4765897691,-4.159724236,0.172851786,4.1905037,
95.16451084,0.1053736061,-5.725618839,0.1138490811,5.727719992,
95.16651084,4.577713966,-16.58839798,-0.5754128695,17.21805775,
95.16851084,3.230793238,-24.24681854,-1.375315666,24.49974954,
95.17051084,-0.5329492688,-32.90094757,-1.283119798,32.93027152,
95.17251084,-2.498033524,-36.40392303,0.5776729584,36.49410212,
95.17451084,-3.130054712,-40.87365723,0.0357789509,40.99334553,
95.17651084,-3.908955574,-49.15874481,-5.600708008,49.63093849,
95.17851084,-6.461279869,-58.47431564,-12.49494648,60.14247596,
95.18051084,-9.966784477,-68.47126007,-20.25105858,72.09546187,
95.18251084,-13.63825417,-74.76140594,-27.37633514,80.77582263,
95.18451084,-15.4111414,-76.70962524,-30.33715057,83.91789195,
95.18651084,-16.08460236,-77.63645172,-32.39933395,85.64957624,
95.18851084,-15.94499969,-78.14674377,-34.64001846,86.95451372,
95.19051084,-14.82949448,-78.14674377,-35.54286957,87.12131224,
95.19251084,-12.73335075,-78.14674377,-35.638134,86.8281543,
95.19451084,-10.4591465,-78.14674377,-34.10398483,85.90337065,
95.19651084,-7.213251114,-78.14674377,-31.26511383,84.47752303,
95.19851084,-1.602084875,-78.14674377,-26.05983162,82.3929309,
95.20051084,2.909778595,-78.14674377,-21.17635918,81.01739666,
95.20251084,7.555631161,-77.83019257,-15.55240822,79.72768552,
95.20451084,13.45380497,-73.11828613,-7.817557335,74.75562078,
95.20651084,17.18190193,-68.31005096,-1.930866241,70.46423959,
95.20851084,20.36664963,-63.1840477,4.864864826,66.56343749,
95.21051084,23.68637276,-56.39418793,16.9213562,63.46401328,
95.21251084,25.36484337,-51.42328644,28.32054329,63.95140999,
95.21451084,25.76968384,-45.35707855,40.00776291,65.74163272,
95.21651084,24.51559258,-41.56027603,42.45956802,64.27352285,
95.21851084,22.34159851,-38.37266541,40.15711212,59.86820632,
95.22051084,18.94348907,-35.00428009,32.81636429,51.58555193,
95.2225124,16.42185783,-32.93582535,26.04622269,45.08715696,
95.22451084,14.11057186,-31.12813759,19.21892738,39.21015631,
95.22651084,11.52680779,-29.01568604,10.9863596,33.09799739,
95.22851084,9.962283134,-27.63384819,5.844734669,29.95058554,
95.23051084,8.704675674,-26.35827255,1.721727848,27.81176473,
95.23251084,7.440326691,-24.76151276,-2.124662399,25.9423431,
95.23451084,6.749311924,-23.61740303,-3.958869934,24.87986311,
95.23651084,6.16014719,-22.2142067,-5.472053051,23.69307403,
95.23851084,5.876615524,-21.2363205,-6.016581059,22.84108504,
95.24051084,5.774134636,-20.28341866,-6.324053764,22.01706972,
95.24251084,5.869864464,-18.98366356,-6.443591595,20.88910394,
95.24451084,6.021914959,-18.01861,-6.486725807,20.07514328,
95.24651084,6.174061775,-17.09949493,-6.399346828,19.27338594,
95.24851084,6.362677097,-15.78886032,-6.001852036,18.04976448,
95.25051084,6.449031353,-14.82958984,-5.540546894,17.09398725,
95.25251084,6.482885361,-13.8764286,-4.951104164,16.09647495,
95.25451084,6.464938641,-12.62281513,-4.078110695,14.75675711,
95.25651084,6.379254818,-11.72829437,-3.421764374,13.78246177,
95.25851084,6.256000996,-10.57599354,-2.636150122,12.56735753,
95.26051084,6.160587311,-9.744123459,-2.147656441,11.7266025,
95.26251084,6.051718235,-8.928859711,-1.744022727,10.9265477,
95.26451084,5.853842258,-7.922920704,-1.310796738,9.937722564,
95.26651084,5.666414738,-7.209745407,-1.036995888,9.228436774,
95.26851084,5.454805851,-6.532962322,-0.773547411,8.545927637,
95.27051084,5.163421154,-5.681890488,-0.4769058228,7.692349231,
95.27251084,4.935656071,-5.10881424,-0.2790202498,7.109046074,
95.27451084,4.728289604,-4.60239315,-0.1767016649,6.600755167,
95.27651084,4.473594666,-3.980542183,-0.1172201186,5.989282583,
95.27851084,4.298214436,-3.571593523,-0.08511865884,5.589111988,
95.28051084,4.04767561,-3.093863964,-0.07652826607,5.09524569,
95.28251084,3.823827505,-2.771384239,-0.08352890611,4.723262058,
95.28451084,3.596406937,-2.483677626,-0.1040137038,4.371912196,
95.28651084,3.259485245,-2.131337404,-0.1610052735,3.897789872,
95.28851084,2.981307745,-1.876173139,-0.2427624762,3.530885885,
95.29051084,2.720933676,-1.619246483,-0.327670455,3.183207057,
95.29251084,2.357560873,-1.27324605,-0.5004168749,2.725741334,
95.29451084,2.085646391,-1.019154191,-0.6456204057,2.409444301,
95.29651084,1.844598413,-0.7628788352,-0.8176198602,2.157088236,
95.29851084,1.549833775,-0.4540842772,-1.065716624,1.93492356,
95.30051709,1.324481964,-0.2264818996,-1.269836664,1.848791951,
95.30251084,0.9891117811,0.04045243189,-1.634856701,1.911212952,
95.30451084,0.6789764166,0.1913924813,-1.934218168,2.058844331,
95.30651084,0.3261573315,0.2942569554,-2.248940706,2.291440608,
95.30851084,-0.2474359572,0.3607104123,-2.701904535,2.737083242,
95.31051084,-0.7143627405,0.3727197647,-3.064118385,3.168289069,
95.31251084,-1.169634581,0.3567935228,-3.507668257,3.714711734,
95.31451084,-1.679379225,0.3553378284,-4.149161339,4.490224868,
95.31651084,-2.029813766,0.3518902063,-4.608387947,5.04789165,
95.31851084,-2.303710461,0.368889004,-5.006257057,5.523202939,
95.32051084,-2.709872246,0.4327471554,-5.484618187,6.132839012,
95.32251084,-2.990137577,0.4641112089,-5.830225945,6.568702803,
95.32451084,-3.250818253,0.4843470156,-6.181014538,7.000525127,
95.32651084,-3.590019226,0.5352094173,-6.683279991,7.605321729,
95.32851084,-3.853544235,0.600140214,-7.08317852,8.08587592,
95.33051084,-4.22490406,0.685996294,-7.302813053,8.464719944,
95.33251084,-4.503158092,0.7600057721,-7.286934853,8.599736108,
95.33451084,-4.778309345,0.8512536287,-7.339837074,8.799436415,
95.33651084,-5.209323406,0.9875411391,-7.568962574,9.241292242,
95.33851084,-5.592557907,1.083500743,-7.807635307,9.664876973,
95.34051084,-6.195466518,1.249505162,-8.077614784,10.25636042,
95.34251084,-6.744198322,1.392343283,-8.232060432,10.73264412,
95.34451084,-7.530731678,1.517148137,-8.406539917,11.38786949,
95.34651084,-8.534198761,1.694903374,-8.607029915,12.23871766,
95.34851084,-9.596956253,2.082217932,-9.009859085,13.32721882,
95.35051084,-10.12104702,2.4262743,-9.383566856,14.01334103,
95.35251084,-10.506073,2.817036867,-9.902830124,14.70983722,
95.35451084,-10.70335579,3.110451221,-10.27199745,15.15752828,
95.35651084,-10.8201828,3.402160645,-10.60637093,15.52888139,
95.35851084,-10.82733727,3.716423512,-10.83819675,15.76418551,
95.36051084,-10.78000736,3.937657118,-10.79016876,15.75250597,
95.36251084,-10.6853981,4.168439388,-10.62653065,15.63575304,
95.36451084,-10.46448994,4.525874615,-10.31481457,15.37480049,
95.36651084,-10.25649261,4.790682793,-9.992181778,15.09933704,
95.36851084,-10.04253578,5.042284489,-9.569135666,14.75959062,
95.37051084,-9.734833717,5.337748051,-8.580329895,14.03141486,
95.37251084,-9.455219269,5.56261158,-7.208845615,13.1267389,
95.37451084,-9.132547379,6.139556408,-4.519591808,11.89639797,
95.37651084,-8.947524071,7.051288128,-0.7887553573,11.41932512,
95.37851084,-8.844908714,8.302018166,4.225162506,12.84554063,
95.38051084,-8.613792419,10.01834583,10.7008276,17.00212882,
95.38251084,-8.355745316,10.96695709,13.80131817,19.50817805,
95.38451084,-8.0648489,11.60135365,15.23522472,20.77848085,
95.38651084,-7.688548088,12.11050415,15.46096039,21.09074154,
95.38851084,-7.413147449,12.33654594,15.27028561,20.98396396,
95.39051084,-7.150226116,12.51383114,15.0968399,20.87190165,
95.39251084,-6.717133999,12.71631336,14.88441658,20.69711022,
95.39451084,-6.352880478,12.81757927,14.58263302,20.42798606,
95.39651084,-5.804502487,12.80974483,13.94931793,19.8082125,
95.39851084,-5.359391689,12.69652843,13.32890415,19.17249591,
95.40051084,-4.87515974,12.53321457,12.57119656,18.40879227,
95.40251084,-4.170938969,12.18079758,11.44590187,17.22722355,
95.40451084,-3.644309998,11.84836769,10.53508091,16.26815116,
95.40651084,-3.117260218,11.46293926,9.593929291,15.26956997,
95.40851084,-2.453721523,10.86746407,8.358675003,13.9280283,
95.41051084,-1.991573572,10.36532307,7.463952541,12.92736923,
95.41251084,-1.582643867,9.835716248,6.572026253,11.93472265,
95.41451084,-1.096592307,9.071505547,5.376984596,10.60220217,
95.41651084,-0.7845128775,8.497309685,4.516153812,9.654811111,
95.41851084,-0.4202207029,7.711800098,3.42944479,8.450416425,
95.42051084,-0.1799577773,7.144316673,2.643983841,7.619993181,
95.42251084,0.03659297898,6.591237068,1.874793887,6.852780257,
95.42451084,0.2718280852,5.907913208,0.8856438994,5.980108201,
95.42651084,0.4036336541,5.427042484,0.2086881995,5.446031676,
95.42851084,0.5639015436,4.985791206,-0.4290696681,5.035891151,
95.43051084,0.7113268971,4.43149519,-1.147665381,4.632631153,
95.43251084,0.7973361611,4.054676056,-1.587422729,4.426743023,
95.43451084,0.8322244883,3.704548359,-1.95389843,4.270128244,
95.43651084,0.8760096431,3.299497366,-2.332440853,4.13453215,
95.43851084,0.8950005174,3.031116724,-2.541607857,4.055670724,
95.44051084,0.8994920254,2.718166113,-2.718137264,3.947883371,
95.44251084,0.8986875415,2.521257162,-2.778700829,3.858180305,
95.44451084,0.8987833261,2.355549812,-2.796887159,3.765501848,
95.44651084,0.9118365049,2.1781106,-2.812468767,3.672273432,
95.44851084,0.9281745553,2.066119432,-2.809040308,3.608471278,
95.45051084,0.9402317405,1.971989036,-2.78415966,3.538971813,
95.45251084,0.9777728319,1.86363709,-2.74389863,3.458057635,
95.45451084,0.9995983839,1.806722045,-2.715493917,3.411355844,
95.45651084,1.019997001,1.754815817,-2.708004951,3.384237469,
95.45851084,1.072008491,1.710025072,-2.764881611,3.423150343,
95.46051084,1.091755986,1.688486814,-2.832570553,3.47366878,
95.46251084,1.093479872,1.645668983,-2.950537682,3.550999471,
95.46451084,1.067028642,1.600906849,-3.051592112,3.607446088,
95.46651084,1.038212061,1.529099941,-3.1539011,3.655560568,
95.46851084,1.04063499,1.424530864,-3.292841196,3.735640843,
95.47051084,1.0470227,1.349879622,-3.367253065,3.775821068,
95.47251084,1.085464001,1.271943569,-3.440123081,3.82498619,
95.47451084,1.179326296,1.195568562,-3.524619102,3.904245704,
95.47651084,1.259292603,1.131834984,-3.552344084,3.935227665,
95.47851084,1.375018835,1.059932232,-3.610906363,4.006591805,
95.48051084,1.5574857,0.9507470727,-3.680012465,4.107575129,
95.48251084,1.693246484,0.8619605303,-3.75057435,4.204386705,
95.48451084,1.889350653,0.7396934032,-3.859117985,4.359998147,
95.48651084,2.031068325,0.6187574863,-3.965458632,4.498106438,
95.48851084,2.174500227,0.4983099997,-4.072690487,4.643659322,
95.49051084,2.358777046,0.3265020847,-4.212875366,4.839292471,
95.49251084,2.475786686,0.1850622147,-4.332930565,4.99380166,
95.49451084,2.570951223,0.02938164398,-4.444567204,5.134669522,
95.49651084,2.627176762,-0.209358573,-4.542356014,5.251560426,
95.49851084,2.591320992,-0.4067652822,-4.599941254,5.295267889,
95.50051084,2.501605511,-0.6225020289,-4.690662384,5.352368869,
95.50254052,2.403443336,-0.782176137,-4.756953239,5.386737742,
95.50451084,2.349171638,-0.9098061919,-4.850193024,5.465411884,
95.50651084,2.310471773,-1.03674686,-4.981672764,5.588397569,
95.50851084,2.274932146,-1.109042168,-5.06384182,5.661076291,
95.51051084,2.222738504,-1.180916071,-5.144210339,5.726956367,
95.51251084,2.168016672,-1.269558907,-5.23289156,5.80475927,
95.51451084,2.115746498,-1.324041367,-5.284338474,5.844116862,
95.51651084,2.074585438,-1.370670915,-5.31444788,5.867367362,
95.51851084,2.035904646,-1.438302279,-5.321208954,5.876128479,
95.52051084,1.993824124,-1.474148273,-5.30563736,5.856469548,
95.52251084,1.955334902,-1.513872981,-5.279712677,5.830138243,
95.52451084,1.886851192,-1.546960831,-5.218095779,5.760366203,
95.52651084,1.82905519,-1.580920219,-5.187449932,5.723144977,
95.52851084,1.768089175,-1.61835587,-5.16442728,5.693551105,
95.53051084,1.703340411,-1.65617466,-5.150799274,5.672302551,
95.53251084,1.666737914,-1.704805613,-5.167060375,5.690596662,
95.53451084,1.615004063,-1.782818317,-5.260942459,5.784824529,
95.53651084,1.591435432,-1.87144208,-5.386704445,5.920434694,
95.53851084,1.555407524,-1.971117496,-5.53235817,6.075490405,
95.54051084,1.546836257,-2.085656166,-5.749330521,6.308523241,
95.54251084,1.533505321,-2.172307014,-5.938884258,6.506988748,
95.54451084,1.527510285,-2.257665396,-6.100071907,6.681408383,
95.54651084,1.526973963,-2.392975807,-6.304230213,6.913848514,
95.54851084,1.530881405,-2.485028028,-6.416920185,7.04952671,
95.55051084,1.533036113,-2.576381445,-6.517399788,7.173872111,
95.55251084,1.541942477,-2.662160635,-6.512487411,7.202581352,
95.55451084,1.531915665,-2.714201212,-6.360283375,7.082856657,
95.55651084,1.517291784,-2.860889196,-6.177030563,6.974422409,
95.55851084,1.484443307,-2.983788252,-6.119225025,6.967889148,
95.56051084,1.476676464,-3.106812,-6.081731796,6.987153628,
95.56251084,1.498157382,-3.343158007,-6.165644169,7.171913902,
95.56451084,1.547104359,-3.615627766,-6.372100353,7.487987643,
95.56651084,1.661097169,-3.994122267,-6.702682495,7.977356023,
95.56851084,1.844876051,-4.763484478,-7.436046124,9.021592651,
95.57051084,2.305194855,-6.090619087,-8.047093391,10.35206628,
95.57251084,4.169981003,-10.60305786,-8.241138458,14.06164786,
95.57451084,5.161860466,-18.03295517,-9.198877335,20.89142455,
95.57651084,4.996851921,-23.34658813,-9.297279358,25.62169218,
95.57851084,3.801302671,-29.35980797,-9.145093918,30.98517337,
95.58051084,2.794445038,-33.1935463,-10.75222588,35.00329699,
95.58251084,1.884926319,-38.20849228,-14.14901352,40.78769929,
95.58451084,0.2320651859,-47.52843857,-20.57483101,51.79121545,
95.58651084,-1.808809757,-56.16994476,-25.62844467,61.76691399,
95.58851084,-4.187401295,-64.60188293,-30.00373459,71.35237696,
95.59051084,-7.434733868,-72.98908997,-34.13330078,80.91825964,
95.59251084,-9.694496155,-75.8664856,-36.85177994,84.89853106,
95.59451084,-11.44498348,-77.23534393,-39.08613586,87.31558862,
95.59651084,-12.46241379,-78.01618195,-40.00330734,88.55563788,
95.59851084,-12.45512581,-78.14674377,-39.05614471,88.24639461,
95.60051084,-12.04858112,-78.14674377,-35.82044601,86.80545042,
95.60251084,-11.49303055,-78.14674377,-32.35168076,85.35592868,
95.60451084,-10.75470638,-78.14674377,-28.38490868,83.83483949,
95.60651084,-9.689238548,-78.14674377,-23.01230049,82.03877669,
95.60851084,-8.791642189,-78.14674377,-18.91602325,80.88276992,
95.61051084,-7.616578102,-77.6042099,-14.70785809,79.35204311,
95.61251084,-5.829306602,-74.14890289,-8.66237545,74.88042043,
95.61451084,-4.381101608,-70.2506485,-3.488208294,70.47350752,
95.61651084,-3.143979549,-64.97415924,4.508789539,65.20625092,
95.61851084,-1.69341886,-57.40523911,15.08395863,59.37806794,
