Time (s),Acceleration x (m/s^2),Acceleration y (m/s^2),Acceleration z (m/s^2),Absolute acceleration (m/s^2),Activity
54.9996999,-2.125246525,-7.468827248,5.355781078,9.433156641,
55.0016999,-2.060229778,-7.517027378,5.507765293,9.543884213,
55.0036999,-2.01702857,-7.582130432,5.638497829,9.661768157,
55.0056999,-1.916711688,-7.726309299,5.890502453,9.902911604,
55.0076999,-1.827752709,-7.837620735,6.091691971,10.09344787,
55.00970615,-1.817630053,-8.003461838,6.136569023,10.24776365,
55.0116999,-1.834590554,-8.259516716,6.164083004,10.46810671,
55.0136999,-1.941544294,-8.508294106,6.16259861,10.68355205,
55.0156999,-2.046084642,-8.861830711,6.242679596,11.03129886,
55.0176999,-2.144333363,-9.148982048,6.304335594,11.31577153,
55.0196999,-2.342975378,-9.484927177,6.306729317,11.62876657,
55.0216999,-2.643543482,-9.953050613,6.149439812,11.99446325,
55.0236999,-2.839848995,-10.29611111,6.07092905,12.28539075,
55.0256999,-3.087447405,-10.66339207,6.046757221,12.64134228,
55.0276999,-3.361938,-11.13442707,5.930600643,13.05565461,
55.0296999,-3.586811066,-11.52790928,5.827343464,13.40581358,
55.0316999,-3.753897429,-11.92428303,5.793316841,13.77834503,
55.0336999,-4.009243965,-12.44179535,5.669412136,14.24831719,
55.0356999,-4.232067585,-12.80730247,5.540671349,14.58205856,
55.0376999,-4.711865902,-13.31971931,5.177911282,15.04750372,
55.0396999,-4.935914993,-13.65274429,4.983837605,15.34924496,
55.0416999,-5.018227577,-13.95055389,4.833577156,15.59371765,
55.0436999,-5.008095264,-14.23059845,4.761856556,15.81980494,
55.0456999,-4.878176212,-14.33419991,4.75841856,15.87162365,
55.0476999,-4.660514832,-14.35970306,4.852252007,15.85767386,
55.0496999,-4.34646225,-14.33305168,4.977296352,15.78295231,
55.0516999,-4.090407372,-14.20387936,5.013563633,15.60824915,
55.0536999,-3.792923212,-14.01356888,4.983482838,15.34931531,
55.0556999,-3.378841162,-13.62229919,4.795049667,14.83159143,
55.0576999,-3.09711051,-13.24938774,4.545104504,14.34560365,
55.0596999,-2.833355665,-12.82775021,4.2368083,13.80324687,
55.0616999,-2.513835192,-12.16258335,3.795010805,12.98652795,
55.0636999,-2.214665174,-11.60422611,3.505140066,12.32269501,
55.0656999,-1.756644845,-10.78326511,3.294804573,11.41141292,
55.0676999,-1.47951138,-10.17004204,3.23758316,10.77500133,
55.0696999,-1.231261373,-9.653508186,3.233225822,10.25475373,
55.0716999,-0.8175049424,-9.076590538,3.219234228,9.665209731,
55.0736999,-0.5071206093,-8.704522133,3.24136591,9.302275519,
55.0756999,-0.2284068465,-8.390028954,3.289546967,9.01475872,
55.0776999,0.1050479934,-8.084826469,3.390065193,8.767439543,
55.0796999,0.3362895846,-7.915393353,3.370317698,8.609621594,
55.0816999,0.6089699864,-7.757280827,3.330075979,8.463784986,
55.0836999,0.9385079145,-7.594953537,3.247217417,8.313154473,
55.0856999,1.106341481,-7.519794941,3.143203974,8.225025146,
55.0876999,1.264483333,-7.466030598,2.949340582,8.126447001,
55.0896999,1.343942046,-7.450525761,2.856646538,8.091782484,
55.0916999,1.443751454,-7.474879742,2.757402182,8.097006373,
55.0936999,1.560100079,-7.523768902,2.6094594,8.114819105,
55.0956999,1.63105464,-7.580933094,2.524992228,8.155150003,
55.0976999,1.661997318,-7.655833721,2.331502438,8.173734071,
55.0996999,1.440974236,-7.812654018,1.986622453,8.18905601,
55.1016999,1.166885972,-7.906937599,1.666144133,8.164393507,
55.1036999,0.9214516282,-7.964828968,1.375717878,8.135119746,
55.1056999,0.6325672865,-7.999487877,1.050815225,8.092969807,
55.1076999,0.3851312995,-8.050684929,0.8044230342,8.099935207,
55.1096999,0.06546705216,-8.119158745,0.4981663227,8.134690796,
55.1116999,-0.2488820553,-8.184243202,0.1981154084,8.190422992,
55.1136999,-0.4685835838,-8.231169701,-0.07444052398,8.244832722,
55.1156999,-0.7048242688,-8.286465645,-0.4198759496,8.326979401,
55.1176999,-0.9208674431,-8.382761002,-0.6181637049,8.455814876,
55.1196999,-1.137025476,-8.509797096,-0.7753286958,8.620360093,
55.1216999,-1.409840107,-8.704915047,-0.9450393319,8.868838393,
55.1236999,-1.599288464,-8.85675621,-1.043843269,9.060323555,
55.1256999,-1.796752572,-9.051480293,-1.144600868,9.29880242,
55.1276999,-2.118916512,-9.41919136,-1.223044395,9.731742427,
55.1296999,-2.399325132,-9.725735664,-1.368602276,10.1103792,
55.1316999,-2.741245985,-10.12048244,-1.581772447,10.60380114,
55.1336999,-2.954942942,-10.43617153,-1.721986413,10.98228579,
55.1356999,-3.129336357,-10.71669674,-1.862995386,11.31861683,
55.1376999,-3.38654089,-11.09195328,-2.060047865,11.77895937,
55.1396999,-3.580825329,-11.37335873,-2.185714483,12.12241505,
55.1416999,-3.808063984,-11.65947437,-2.344881058,12.48772041,
55.1436999,-4.139919281,-11.99747849,-2.618730068,12.95901882,
55.1456999,-4.33699131,-12.20217419,-2.816040754,13.2526463,
55.1476999,-4.541724205,-12.38672829,-2.985080957,13.52660359,
55.1496999,-4.8273139,-12.53970814,-3.15999198,13.80336151,
55.1516999,-4.953996181,-12.57702923,-3.295781612,13.91351569,
55.1536999,-5.068869591,-12.55207157,-3.485076666,13.97832962,
55.1556999,-5.145167828,-12.48791695,-3.586313009,13.97435017,
55.1576999,-5.221208096,-12.40108395,-3.69837141,13.95442038,
55.1596999,-5.335928917,-12.27136612,-3.837742329,13.92073382,
55.1616999,-5.472331047,-12.20378208,-4.007070065,13.96192375,
55.1636999,-5.593439579,-12.11867332,-4.146134853,13.97638164,
55.1656999,-5.741822243,-11.99998856,-4.2449193,13.96379561,
55.1676999,-5.87406826,-11.90042782,-4.210423946,13.92309341,
55.16975927,-6.0125494,-11.83875275,-4.171561241,13.91792873,
55.1716999,-6.229080677,-11.72652245,-4.102282524,13.89753563,
55.1736999,-6.365636349,-11.63573456,-4.02483511,13.86040917,
55.1756999,-6.580741405,-11.51540184,-3.920217991,13.83035596,
55.1776999,-6.723186493,-11.418293,-3.771940231,13.77701654,
55.1796999,-6.870266914,-11.32982254,-3.638180971,13.74051699,
55.1816999,-7.053337574,-11.21960258,-3.492958307,13.70510164,
55.1836999,-7.176542759,-11.11312771,-3.402275562,13.65942358,
55.1856999,-7.242690086,-10.985919,-3.256133556,13.5554189,
55.1876999,-7.317015648,-10.82286453,-3.095702887,13.42596332,
55.1896999,-7.373585701,-10.70350838,-2.929324865,13.32350561,
55.1916999,-7.380212784,-10.57953739,-2.746187687,13.18846841,
55.1936999,-7.375108242,-10.42255402,-2.527558804,13.01577532,
55.1956999,-7.37840271,-10.32723522,-2.314110756,12.90146203,
55.1976999,-7.339492321,-10.20292854,-1.872859478,12.70730109,
55.1996999,-7.180421352,-10.15485382,-1.534683347,12.53135108,
55.2016999,-7.066696644,-10.1646986,-1.227622151,12.44051266,
55.2036999,-7.04448843,-10.17783833,-0.7656369805,12.40158902,
55.2056999,-7.035102844,-10.16998482,-0.4779305458,12.37536589,
55.2076999,-6.964952946,-10.18208027,-0.1869392693,12.33775808,
55.2096999,-6.827688694,-10.18049049,0.2132659107,12.2599022,
55.2116999,-6.724718571,-10.15266037,0.4746361077,12.1870272,
55.2136999,-6.575358868,-10.12056828,0.7299921513,12.09107667,
55.2156999,-6.346291542,-10.06997395,1.036038041,11.94793566,
55.2176999,-6.141970158,-10.00330925,1.245281696,11.80426702,
55.2196999,-5.841478348,-9.90879631,1.449497581,11.59345319,
55.2216999,-5.619066715,-9.851287842,1.514753938,11.44186446,
55.2236999,-5.389462948,-9.770861626,1.539423823,11.26436299,
55.2256999,-5.041671753,-9.64202404,1.554746747,10.99110181,
55.2276999,-4.759759426,-9.549915314,1.564198971,10.78438272,
55.2296999,-4.498044491,-9.45843792,1.57162106,10.59077168,
55.2316999,-4.110212326,-9.347547531,1.560157537,10.32979098,
55.2336999,-3.8271029,-9.283621788,1.522156835,10.15624495,
55.2356999,-3.552717447,-9.242375374,1.472357392,10.01055144,
55.2376999,-3.206449032,-9.179828644,1.411697865,9.825653168,
55.2396999,-2.956063509,-9.16185379,1.357129216,9.722123022,
55.2416999,-2.665359259,-9.158349037,1.300444245,9.626559733,
55.2436999,-2.451432705,-9.155542374,1.267758489,9.562462551,
55.2456999,-2.234977722,-9.156567574,1.219807506,9.503987873,
55.2476999,-1.943967342,-9.12382412,1.086096048,9.391633522,
55.2496999,-1.730998278,-9.083745003,0.9616550207,9.297072587,
55.2516999,-1.494977951,-9.052619934,0.8231840134,9.212085468,
55.2536999,-1.202176571,-9.015778542,0.6162005067,9.116424424,
55.2556999,-0.9965624809,-8.982087135,0.4728739858,9.049565508,
55.2576999,-0.8101882935,-8.955951691,0.3572053313,8.99961507,
55.2596999,-0.5710362792,-8.942008018,0.2450130284,8.963571901,
55.2616999,-0.4078474641,-8.954361916,0.2372270823,8.966783903,
55.2636999,-0.2522339225,-8.960817337,0.2866338193,8.968948001,
55.2656999,-0.08990705758,-8.96849823,0.3812048137,8.977046334,
55.2676999,0.0625269711,-8.945628166,0.4919892848,8.959365288,
55.2696999,0.2946304679,-8.921445847,0.6652624607,8.951065705,
55.2716999,0.4994017482,-8.872068405,0.7766407728,8.919987151,
55.2736999,0.6790722013,-8.826511383,0.850851357,8.893390258,
55.2756999,0.8474516869,-8.769194603,0.9148244858,8.857417919,
55.2776999,0.9452021122,-8.739200592,0.9490807056,8.8412549,
55.2796999,1.032255292,-8.698403358,0.9817759395,8.814287037,
55.2816999,1.09294343,-8.672507286,0.9970892072,8.797789203,
55.2836999,1.114117742,-8.666214943,0.9663668275,8.79081365,
55.2856999,1.123905301,-8.638720512,0.939455986,8.762033598,
55.2876999,1.109243155,-8.622133255,0.8839679956,8.738020466,
55.2896999,1.067440391,-8.637638092,0.8327416182,8.74309324,
55.2916999,0.995767653,-8.659703255,0.7598717809,8.74982393,
55.2936999,0.9164812565,-8.673311234,0.689817369,8.748834988,
55.2956999,0.8594896793,-8.669489861,0.6235841513,8.734279257,
55.2976999,0.7283353209,-8.67579174,0.5188618302,8.721757407,
55.2996999,0.5902186036,-8.68586731,0.441165179,8.717068064,
55.3016999,0.4284567535,-8.720640182,0.3410779834,8.737818639,
55.3036999,0.1899751127,-8.777191162,0.2251315713,8.782132968,
55.3056999,-0.02960190922,-8.835130692,0.1764430851,8.836941936,
55.3076999,-0.2484032065,-8.91264534,0.1436520964,8.917263427,
55.3096999,-0.5450735688,-9.014016151,0.05845683068,9.030670494,
55.3116999,-0.7421546578,-9.072099686,-0.05867709219,9.102594644,
55.3136999,-1.000211358,-9.159793854,-0.2313852161,9.217146268,
55.3156999,-1.191709161,-9.20895195,-0.3404842317,9.291980212,
55.3176999,-1.398769259,-9.293773651,-0.4408587217,9.40877997,
55.3196999,-1.676870108,-9.393219948,-0.5819729567,9.559454319,
55.3216999,-1.857823849,-9.465409279,-0.6759406328,9.669662766,
55.3236999,-2.038691521,-9.546074867,-0.7556483746,9.790547122,
55.3256999,-2.262434244,-9.640818596,-0.8454500437,9.938751314,
55.3276999,-2.439605236,-9.710029602,-0.9178794622,10.05379785,
55.3296999,-2.604718924,-9.779615402,-0.973300457,10.16723915,
55.3316999,-2.816893339,-9.87812233,-0.9696516991,10.31757788,
55.3336999,-2.946572781,-9.92840004,-0.92726475,10.39784778,
55.3356999,-3.097292423,-10.01357651,-0.88305825,10.51877972,
55.3376999,-3.229404449,-10.04591656,-0.8396657109,10.58558128,
55.3396999,-3.334433317,-10.06183434,-0.7426717877,10.62593606,
55.3416999,-3.438897133,-10.04690361,-0.6465781331,10.63881332,
55.3436999,-3.478956938,-9.997065544,-0.6079165936,10.60254797,
55.3456999,-3.540976286,-9.975164413,-0.5656061769,10.60010983,
55.3476999,-3.604164362,-9.94843483,-0.4599165618,10.59116989,
55.3496999,-3.649012566,-9.916372299,-0.3719631732,10.57298864,
55.3516999,-3.698524475,-9.869186401,-0.2785988748,10.54312766,
55.3536999,-3.762976408,-9.808383942,-0.1336922348,10.50629624,
55.3556999,-3.790528774,-9.732104301,-0.0230130665,10.44425642,
55.3576999,-3.795757771,-9.651735306,0.1204283461,10.37199472,
55.3596999,-3.807891607,-9.574114799,0.2118293941,10.30575492,
55.3616999,-3.797883749,-9.474986076,0.2877160013,10.21185892,
55.3636999,-3.775550842,-9.330750465,0.3689081669,10.0724268,
55.3656999,-3.791151285,-9.243678093,0.4121474624,9.999413897,
55.3676999,-3.773271561,-9.139165878,0.4464515746,9.897537584,
55.3696999,-3.761721849,-9.003194809,0.469167769,9.76873515,
55.3716999,-3.726345301,-8.873705864,0.5076856613,9.637740907,
55.3736999,-3.68529892,-8.749696732,0.5546311736,9.510322642,
55.3756999,-3.630213022,-8.594820023,0.5866655707,9.348451973,
55.3776999,-3.614746571,-8.466979027,0.6009638309,9.22590289,
55.3796999,-3.559555531,-8.283659935,0.6423739195,9.038921492,
55.3816999,-3.504488707,-8.174542427,0.6819164753,8.920179094,
55.3836999,-3.463979006,-8.07674408,0.7609155774,8.821107527,
55.3856999,-3.411804438,-7.956123829,0.8332875371,8.69682034,
55.3876999,-3.367866039,-7.876119137,0.8727343678,8.610310075,
55.3896999,-3.334634542,-7.806361675,0.8998176455,8.536318992,
55.3916999,-3.273275852,-7.730187893,0.9170558453,8.444591825,
55.3936999,-3.243894339,-7.696074963,0.9103999734,8.401264692,
55.3956999,-3.197609663,-7.644599438,0.8886702061,8.333927217,
55.3976999,-3.098230839,-7.542654991,0.8645653725,8.199887312,
55.3996999,-3.044859648,-7.484073162,0.8080335259,8.120064011,
55.4016999,-3.028531075,-7.429763317,0.7338132262,8.05679001,
55.4036999,-3.001131773,-7.394845963,0.6897311807,8.010384999,
55.4056999,-2.945423603,-7.355389595,0.6725504398,7.951704244,
55.4076999,-2.908562422,-7.336849213,0.6078878045,7.91571976,
55.4096999,-2.891209126,-7.37168026,0.5130869746,7.934986976,
55.4116999,-2.794933558,-7.430798054,0.4596867263,7.952340862,
55.4136999,-2.763770819,-7.438822746,0.4330632091,7.947455991,
55.4156999,-2.783833981,-7.446072578,0.4087189734,7.959948472,
55.4176999,-2.793995142,-7.472782135,0.3851695955,7.987317279,
55.4196999,-2.795373917,-7.479687214,0.3454258442,7.992443629,
55.4216999,-2.802068472,-7.455199242,0.3069653809,7.970308099,
55.4236999,-2.822610617,-7.470397949,0.2614181042,7.99013865,
55.4256999,-2.808465481,-7.474678516,0.2407034636,7.988506459,
55.4276999,-2.820877314,-7.504328251,0.2224500775,8.020085745,
55.4296999,-2.765657187,-7.58259964,0.1768070012,8.073161567,
55.4316999,-2.759633541,-7.687111378,0.1254561692,8.168414648,
55.4336999,-2.795230389,-7.771789551,0.1263180822,8.260144188,
55.4356999,-2.89503026,-7.852196217,0.1345254034,8.369963125,
55.4376999,-2.972162008,-7.910307884,0.1489863843,8.45156286,
55.4396999,-3.015659809,-7.952896595,0.1599901319,8.506959808,
55.4416999,-3.009137869,-8.016592026,0.2406843156,8.566130244,
55.4436999,-3.047014475,-8.072070122,0.2711002529,8.632271347,
55.4456999,-3.052693367,-8.132068634,0.3115526736,8.691751385,
55.4476999,-3.051161051,-8.171046257,0.3445639312,8.728934929,
55.4496999,-3.080638409,-8.232290268,0.4056065083,8.79917341,
55.4516999,-3.125735521,-8.300543785,0.4654040933,8.881770693,
55.4536999,-3.133952618,-8.345056534,0.5290706754,8.929812055,
55.4556999,-3.143232346,-8.397316933,0.5722908378,8.984562207,
55.4576999,-3.129144907,-8.462104797,0.667915225,9.046815804,
55.4596999,-3.117700577,-8.522917747,0.7318021059,9.10470857,
55.4616999,-3.099840164,-8.60159111,0.747153759,9.173582583,
55.4636999,-3.042427063,-8.711044312,0.7703295946,9.259161037,
55.4656999,-3.030025244,-8.798356056,0.7879605293,9.338790289,
55.4676999,-2.992129564,-8.896777153,0.7943482399,9.42000383,
55.4696999,-2.928233147,-9.04158783,0.8225710988,9.539469747,
55.4716999,-2.870561838,-9.132212639,0.8347432017,9.609070151,
55.4736999,-2.806627035,-9.267954826,0.8425578475,9.720187534,
55.4756999,-2.754979134,-9.35267067,0.8452394009,9.786561619,
55.4776999,-2.71891284,-9.440394402,0.8382674456,9.859828893,
55.4796999,-2.664114475,-9.561407089,0.8740177155,9.964031234,
55.4816999,-2.615176916,-9.644543648,0.9158492088,10.03469742,
55.4836999,-2.596425533,-9.736480713,0.9445700049,10.12090385,
55.4856999,-2.550562143,-9.816772461,0.9890925884,10.19081415,
55.4876999,-2.504382849,-9.863746643,1.033174634,10.22902151,
55.4896999,-2.45552206,-9.910855293,1.084343553,10.26793271,
55.4916999,-2.41626668,-9.97341156,1.146650314,10.32579729,
55.4936999,-2.380995274,-10.01717663,1.208861232,10.3669818,
55.4956999,-2.3567276,-10.07621765,1.283790112,10.42748504,
55.4976999,-2.306353807,-10.11290741,1.348893166,10.45990807,
55.4996999,-2.286606312,-10.14969158,1.411554337,10.4993949,
55.5016999,-2.298443079,-10.2072382,1.492334604,10.56870923,
55.5036999,-2.298826218,-10.23473358,1.542019129,10.60246181,
55.5056999,-2.295704365,-10.24560356,1.586177707,10.61878574,
55.5076999,-2.304533958,-10.27112484,1.647191644,10.65458223,
55.5096999,-2.330008268,-10.27251339,1.697393179,10.66933051,
55.5116999,-2.332325935,-10.27220726,1.733287096,10.67531126,
55.5136999,-2.320517778,-10.24250984,1.778882265,10.65167746,
55.51570615,-2.291270256,-10.2175808,1.827810168,10.62966447,
55.5176999,-2.28886652,-10.18072987,1.865734339,10.60033656,
55.5196999,-2.290216684,-10.15076351,1.874008656,10.57331551,
55.5216999,-2.285399675,-10.1210947,1.89299953,10.54718242,
55.5236999,-2.290944576,-10.06845093,1.891879082,10.49768249,
55.5256999,-2.307780504,-10.02668667,1.895096779,10.46191609,
55.5276999,-2.322050095,-9.970183372,1.903974533,10.41256895,
55.5296999,-2.341500521,-9.897562027,1.917295933,10.3498977,
55.5316999,-2.353222609,-9.833024025,1.920638204,10.29149499,
55.5336999,-2.367338896,-9.752129555,1.905104637,10.21458506,
55.5356999,-2.418364048,-9.642197609,1.862047195,10.11373715,
55.5376999,-2.47186017,-9.563532829,1.826268315,10.04522319,
55.5396999,-2.575864315,-9.463464737,1.783182263,9.968549583,
55.5416999,-2.653493643,-9.391801834,1.732463479,9.912033087,
55.5436999,-2.761299849,-9.331324577,1.648589849,9.869966753,
55.5456999,-2.936641693,-9.275424957,1.51461041,9.846391078,
55.5476999,-3.051132441,-9.249136925,1.389135003,9.837969256,
55.5496999,-3.155213118,-9.234062195,1.238242745,9.836489187,
55.5516999,-3.280640602,-9.247756958,0.9890447259,9.862140791,
55.5536999,-3.408893108,-9.281294823,0.8118546009,9.920790982,
55.5556999,-3.535737991,-9.311653137,0.647353828,9.981352327,
55.5576999,-3.743066072,-9.444245338,0.4904665947,10.17078518,
55.5596999,-3.884419918,-9.497692108,0.3251326084,10.26647869,
55.5616999,-4.033329487,-9.571060181,0.08443870395,10.38653309,
55.5636999,-4.081970215,-9.594532967,-0.0981143862,10.42723214,
55.5656999,-4.088855743,-9.595030785,-0.2611403763,10.43319469,
55.5676999,-4.100979805,-9.561178207,-0.4794915915,10.41460879,
55.5696999,-4.114713192,-9.531039238,-0.6361297965,10.40078049,
55.5716999,-4.107588291,-9.479506493,-0.7987918854,10.36201686,
55.5736999,-4.122940063,-9.403409004,-0.9731088877,10.3135676,
55.5756999,-4.114406586,-9.334101677,-1.081796169,10.25787886,
55.5776999,-4.091010571,-9.242749214,-1.173015118,10.17549728,
55.5796999,-4.069415092,-9.136753082,-1.298614979,10.0859703,
55.5816999,-4.068610668,-9.040802956,-1.387717605,10.01076775,
55.5836999,-4.040914536,-8.913249016,-1.476130724,9.897169303,
55.5856999,-4.029930115,-8.822815895,-1.529626727,9.819479364,
55.5876999,-4.023647308,-8.7231493,-1.561316371,9.73246013,
55.5896999,-4.017298222,-8.595557213,-1.588840127,9.620119633,
55.5916999,-4.046679497,-8.522304535,-1.595869541,9.56828559,
55.5936999,-4.071340084,-8.451799393,-1.578181148,9.513116145,
55.5956999,-4.084211349,-8.379140854,-1.519312501,9.444527213,
55.5976999,-4.117949963,-8.323480606,-1.460903525,9.400642553,
55.5996999,-4.136002541,-8.280633926,-1.385294676,9.359191022,
55.6016999,-4.185313702,-8.245927811,-1.29197824,9.337097194,
55.6036999,-4.23365736,-8.230546951,-1.186365247,9.331303245,
55.6056999,-4.311497688,-8.23740387,-1.095682502,9.361856385,
55.6076999,-4.391167164,-8.265330315,-1.017736793,9.414553757,
55.6096999,-4.491148949,-8.311528206,-0.9566655159,9.495637362,
55.6116999,-4.624889374,-8.406894684,-0.8677352667,9.634232945,
55.6136999,-4.736181259,-8.490021706,-0.8355860114,9.75756555,
55.6156999,-4.838308334,-8.60547924,-0.8086368442,9.905422456,
55.6176999,-4.983473301,-8.811285019,-0.7654454112,10.1518302,
55.6196999,-5.101832867,-8.961841583,-0.7110874653,10.33677651,
55.6216999,-5.204208851,-9.126160622,-0.6760651469,10.52747175,
55.6236999,-5.358328819,-9.361002922,-0.6085295081,10.80325745,
