Time (s),Acceleration x (m/s^2),Acceleration y (m/s^2),Acceleration z (m/s^2),Absolute acceleration (m/s^2),Activity
74.9996999,-4.401758671,-11.04874325,-0.8271200657,11.9220105,
75.0016999,-4.169502258,-10.66670513,-0.6693421602,11.47219972,
75.0036999,-3.855670452,-9.916611671,-0.3941430748,10.64709963,
75.0056999,-3.595382214,-9.40576458,-0.1993220896,10.07148995,
75.0076999,-3.228561878,-8.785493851,0.117507413,9.360679569,
75.0096999,-2.95508647,-8.385308266,0.3190034628,8.896498972,
75.0116999,-2.675453424,-8.027844429,0.5435412526,8.479373461,
75.0136999,-2.310979366,-7.502815247,0.9217389822,7.904585062,
75.0156999,-2.03369236,-7.076560974,1.15737617,7.453397845,
75.0176999,-1.754815817,-6.670897007,1.357052684,7.030066672,
75.0196999,-1.405635834,-6.160051346,1.525891781,6.500030031,
75.0216999,-1.138816357,-5.816378117,1.589002967,6.136129686,
75.0236999,-0.9039164782,-5.55975771,1.589452982,5.852720015,
75.0256999,-0.5856408477,-5.056180477,1.645726323,5.349425329,
75.0276999,-0.3888854086,-4.71938324,1.665061831,5.019585733,
75.0296999,-0.1842673272,-4.415051937,1.681323409,4.727947383,
75.0316999,0.09958921373,-4.037514687,1.649154902,4.362471174,
75.0336999,0.293548286,-3.714287758,1.615540266,4.061043523,
75.0356999,0.5320203304,-3.298396111,1.579378247,3.695524074,
75.0376999,0.6462429166,-3.037906647,1.569054484,3.479718189,
75.0396999,0.7515399456,-2.790126085,1.521831155,3.265820865,
75.0416999,0.8460917473,-2.542297363,1.461420774,3.052031751,
75.0436999,0.931756258,-2.182525635,1.470806003,2.791927321,
75.0456999,0.9780026674,-1.86635685,1.483514428,2.576934645,
75.0476999,1.018608332,-1.477701306,1.426733494,2.292756539,
75.0496999,1.019814968,-1.228311658,1.346039295,2.088203506,
75.0516999,1.00504756,-0.8843510747,1.278551579,1.851186527,
75.0536999,0.9943119287,-0.5997188091,1.255117178,1.709864905,
75.0556999,0.9461980462,-0.4132296443,1.254389286,1.624666724,
75.0576999,0.8797158599,-0.212911576,1.342610836,1.619208199,
75.0596999,0.8305389881,0.1297753155,1.451231003,1.677113016,
75.0616999,0.7606186867,0.4658637643,1.549661398,1.788021331,
75.0636999,0.6648506522,0.8993387222,1.69918406,2.034222947,
75.0656999,0.6082326174,1.192331553,1.855640411,2.288012846,
75.0676999,0.5487318635,1.486052275,2.015237808,2.563326246,
75.0696999,0.4268287122,1.838210583,2.213276625,2.908572556,
75.0716999,0.2977907956,2.040472746,2.316371202,3.101255219,
75.0736999,0.1420527846,2.177650928,2.414044857,3.254221125,
75.0756999,-0.006004657596,2.242122173,2.582960367,3.42035556,
75.0776999,-0.1290091723,2.361257553,2.788124561,3.655929317,
75.0796999,-0.2837033272,2.465348005,3.023531914,3.911543634,
75.0816999,-0.4203547537,2.501682043,3.193309546,4.078276231,
75.0836999,-0.553558588,2.511728287,3.308614254,4.190720031,
75.0856999,-0.7124282122,2.528995275,3.316486597,4.231129212,
75.0876999,-0.8610603213,2.488284111,3.219990492,4.159485721,
75.0896999,-0.9799275994,2.47531724,3.057558298,4.054148034,
75.0916999,-1.125590801,2.427184343,2.827073574,3.892367336,
75.0936999,-1.209541082,2.380928278,2.61220789,3.735697947,
75.0956999,-1.27914536,2.316897631,2.377040148,3.557323059,
75.0976999,-1.364580035,2.205433369,2.035578966,3.296907148,
75.0996999,-1.398683071,2.128129482,1.773902297,3.103542941,
75.1016999,-1.432517886,2.015754938,1.44599247,2.864658738,
75.1036999,-1.453337908,1.953553677,1.222642183,2.724594823,
75.1056999,-1.471342325,1.896485448,1.020360947,2.608187446,
75.1076999,-1.487431288,1.821767211,0.8189510703,2.490375165,
75.10975927,-1.487670779,1.747939587,0.7060021758,2.401436282,
75.1116999,-1.469723701,1.695209742,0.6365990639,2.332183997,
75.1136999,-1.43163681,1.625892878,0.5767344236,2.241814935,
75.1156999,-1.399085283,1.57096982,0.5377759933,2.171310393,
75.1176999,-1.370680451,1.554018974,0.5228649378,2.137083905,
75.1196999,-1.30141139,1.518239856,0.4844906628,2.057536165,
75.1216999,-1.224749088,1.495064139,0.4449480176,1.983231164,
75.1236999,-1.132639408,1.500896335,0.4181042314,1.926232848,
75.1256999,-1.055498123,1.504516363,0.3708043694,1.874871104,
75.1276999,-0.9757712483,1.52053833,0.3036613762,1.832041641,
75.1296999,-0.8715660572,1.545639157,0.2130743712,1.787184513,
75.1316999,-0.7706935406,1.573038459,0.15780662,1.758784084,
75.1336999,-0.6736900806,1.59981513,0.07170155644,1.737356581,
75.1356999,-0.5329588652,1.638160586,-0.02726516873,1.722892524,
75.1376999,-0.4334175289,1.667867899,-0.1171722338,1.727241562,
75.1396999,-0.3294421434,1.694730878,-0.2231012881,1.740809886,
75.1416999,-0.1826488674,1.718979359,-0.3684771955,1.767491468,
75.1436999,-0.06487329304,1.731160998,-0.4729505777,1.795775374,
75.1456999,0.08429504931,1.75382936,-0.6385335922,1.868354417,
75.1476999,0.196382001,1.750640273,-0.7726376057,1.92361018,
75.1496999,0.2982983589,1.756989717,-0.8909686208,1.99244068,
75.1516999,0.4505600333,1.765177846,-1.057202935,2.106308434,
75.1536999,0.5328726768,1.757401466,-1.171042323,2.178015915,
75.1556999,0.6338026524,1.742337108,-1.269424915,2.246972188,
75.1576999,0.741733253,1.7084831,-1.363038182,2.308019889,
75.1596999,0.8112704754,1.679005742,-1.402149916,2.333076178,
75.1616999,0.8840924501,1.654278398,-1.41494441,2.34953701,
75.1636999,0.9556311965,1.624647856,-1.417587638,2.358445749,
75.1656999,1.001571178,1.596300364,-1.38979578,2.341549057,
75.1676999,1.048669934,1.537987351,-1.336232662,2.291425637,
75.1696999,1.056723952,1.483131289,-1.284383893,2.228449218,
75.1716999,1.075743556,1.452562094,-1.217039824,2.179070161,
75.1736999,1.09307754,1.414398551,-1.124853373,2.112021989,
75.1756999,1.079717875,1.374721885,-1.038030028,2.033016795,
75.1776999,1.070955157,1.324989557,-0.9489657879,1.950148287,
75.1796999,1.031900883,1.292026162,-0.8328757286,1.851440794,
75.1816999,0.9976829886,1.257425189,-0.7580329776,1.775134769,
75.1836999,0.9595002532,1.234699368,-0.6818686724,1.705892187,
75.1856999,0.9092411995,1.191584587,-0.6178572178,1.62121588,
75.1876999,0.8744199276,1.151266217,-0.5601378679,1.550412379,
75.1896999,0.8386313915,1.106552124,-0.503749609,1.476998268,
75.1916999,0.8047582507,1.084669232,-0.4707096219,1.430283445,
75.1936999,0.7766981721,1.062259436,-0.447303921,1.389869043,
75.1956999,0.743734777,1.038326979,-0.4428411126,1.351803456,
75.1976999,0.725586772,1.005143285,-0.4413758814,1.315903437,
75.1996999,0.7059064507,0.9852427244,-0.4450725019,1.29116098,
75.2016999,0.6683174372,0.9438326359,-0.4174817502,1.229536194,
75.2036999,0.6520368457,0.9325511456,-0.414062798,1.210888801,
75.2056999,0.6231245399,0.9124111533,-0.391097635,1.172064702,
75.2076999,0.5901898742,0.880022347,-0.3807355464,1.125932047,
75.2096999,0.5846544504,0.85758394,-0.3882245719,1.108146813,
75.2116999,0.5545929074,0.8397327065,-0.3681133091,1.071555747,
75.2136999,0.5434454679,0.8110980988,-0.3370844424,1.032878998,
75.2156999,0.5261976123,0.7952389121,-0.3157951832,1.004497612,
75.2176999,0.5228745341,0.7375578284,-0.2767505348,0.945505255,
75.2196999,0.5178275108,0.693207562,-0.2361449003,0.8969093984,
75.2216999,0.5086145997,0.6381217837,-0.1805323809,0.8357512563,
75.2236999,0.4932342768,0.5192736387,-0.09858364612,0.7229411449,
75.2256999,0.4271255732,0.2998498082,-0.02333867922,0.5223895641,
75.2276999,0.348030746,0.06050626189,0.05066130683,0.3568654871,
75.2296999,0.289794147,-0.2192322612,0.1514572054,0.3936784437,
75.2316999,0.2768654823,-0.3927257061,0.2074815184,0.5233894879,
75.2336999,0.2634483576,-0.518430829,0.2375526875,0.6281773961,
75.2356999,0.2530192435,-0.6322990656,0.2837607861,0.737794707,
75.2376999,0.2410195023,-0.7056478262,0.327488482,0.8144187872,
75.2396999,0.2188779116,-0.7964838743,0.4675588608,0.9491603608,
75.2416999,0.2125476599,-0.8797733784,0.6259592175,1.100455654,
75.2436999,0.1906550825,-0.9807990789,0.8840445876,1.334110575,
75.2456999,0.1388828605,-1.145309448,1.373218417,1.793530318,
75.2476999,0.1147109941,-1.307511806,1.879994273,2.292841949,
75.2496999,0.07340622693,-1.538810968,2.699366808,3.108039388,
75.2516999,-0.04483860731,-1.932925224,3.879775047,4.334843116,
75.2536999,-0.1411717087,-2.255500793,4.828405857,5.331108365,
75.2556999,-0.2429444343,-2.607563496,5.875648975,6.432857861,
75.2576999,-0.377335757,-3.085436583,7.367274761,7.996189004,
75.2596999,-0.4876892865,-3.453980684,8.456167221,9.147381455,
75.2616999,-0.5980428457,-3.942388296,9.558073997,10.35648875,
75.2636999,-0.6654731631,-4.238991737,10.01935101,10.89950917,
75.2656999,-0.7192181945,-4.528699875,10.21419144,11.19625402,
75.2676999,-0.7736335993,-4.930465698,10.14159012,11.30309033,
75.2696999,-0.8011094332,-5.214887142,9.847476959,11.17182289,
75.2716999,-0.815838635,-5.480471134,9.19701004,10.73713883,
75.2736999,-0.8241704106,-5.902837276,7.951000214,9.936858114,
75.2756999,-0.7900769711,-6.270194054,6.786441326,9.273367294,
75.2776999,-0.7443956137,-6.654195309,5.598965168,8.728164239,
75.2796999,-0.7120068073,-7.291790009,4.373000145,8.532308333,
75.2816999,-0.7263050675,-7.890857697,3.596062183,8.702000774,
75.2836999,-0.8940523863,-9.307985306,2.946553707,9.804085825,
75.2856999,-0.9216814637,-11.0264101,2.590181351,11.36398944,
75.2876999,-0.6317244768,-13.01381779,2.016722202,13.18429739,
75.2896999,0.2061886489,-15.89603424,1.641866922,15.98193184,
75.2916999,0.9934883714,-18.35336494,1.807536125,18.46889847,
75.2936999,1.719582677,-21.46335793,2.127889872,21.63701951,
75.2956999,3.094400406,-26.21549416,2.521027327,26.51759843,
75.2976999,4.236463547,-29.98672485,2.545869589,30.39132677,
75.2996999,5.469323635,-33.5291481,2.537959337,34.06697097,
75.3016999,7.441926003,-38.2317543,3.106333017,39.07299073,
75.3036999,9.012263298,-42.01300049,4.261458874,43.17954529,
75.3056999,10.76937771,-46.85467911,5.763284206,48.42061436,
75.3076999,11.28729153,-49.81760025,6.34676075,51.47307662,
75.3096999,11.08150482,-52.13505554,6.36122179,53.6780114,
75.3116999,10.20481586,-53.85764313,5.557373047,55.09689996,
75.3136999,9.226946831,-54.9412117,4.572254658,55.89793202,
75.3156999,8.192948341,-55.77868271,3.515674591,56.48668706,
75.3176999,6.383037567,-56.21974182,1.949196219,56.6145026,
75.3196999,4.761866093,-56.25350571,0.7189404964,56.45926982,
75.3216999,3.128225565,-56.03635788,-0.1901666522,56.12392861,
75.3236999,1.252809048,-55.2996521,-0.8621807694,55.32056045,
75.3256999,0.1092234775,-54.48026276,-1.294439435,54.49574785,
75.3276999,-1.286021471,-53.26276779,-1.593168855,53.30210569,
75.3296999,-2.121128559,-52.12324524,-1.487622857,52.18759338,
75.3316999,-2.733105659,-50.78573227,-1.297906399,50.87578038,
75.3336999,-3.386205673,-48.81975555,-1.365748405,48.95610473,
75.3356999,-3.719210386,-47.0892067,-1.688247442,47.26601414,
75.3376999,-3.97514081,-45.28417969,-2.122373581,45.50783607,
75.3396999,-4.132411003,-42.80708313,-2.880598068,43.1024481,
75.3416999,-4.23438549,-40.90280151,-3.609086752,41.27947068,
75.3436999,-4.194794655,-39.04584885,-4.369513512,39.51287464,
75.3456999,-4.256306648,-36.75176239,-4.930130482,37.32444737,
75.3476999,-4.441560268,-35.07764053,-4.903277397,35.69608455,
75.3496999,-4.594990253,-32.69412613,-4.530356407,33.3248248,
75.3516999,-4.604375362,-30.95168304,-4.117806435,31.56205452,
75.3536999,-4.509392738,-29.38723564,-3.606577635,29.94915097,
75.3556999,-4.60625267,-27.85101128,-2.691446543,28.35736725,
75.3576999,-4.44558239,-26.77565956,-1.868147731,27.20641696,
75.3596999,-4.112118244,-25.73452759,-0.9055733085,26.07672314,
75.3616999,-3.730012894,-24.66259575,0.4139479101,24.94650232,
75.3636999,-3.565588951,-24.11003304,1.175639272,24.40059928,
75.3656999,-3.530365229,-23.62815666,1.789081573,23.95733872,
75.3676999,-3.635796309,-23.20744705,2.393043041,23.61210004,
75.3696999,-3.774181128,-22.91035461,2.724802732,23.37848031,
75.3716999,-4.008870125,-22.57740784,3.0048666,23.12659957,
75.3736999,-4.183963299,-22.39910698,3.075754404,22.99316871,
75.3756999,-4.350838661,-22.20967865,3.052396536,22.83674117,
75.3776999,-4.515636921,-21.82509232,2.984908581,22.48633609,
75.3796999,-4.588027954,-21.53565216,2.935070992,22.213711,
75.3816999,-4.61920023,-21.23394585,2.852308273,21.91695986,
75.3836999,-4.629677296,-20.78244781,2.685863256,21.460613,
75.3856999,-4.651531696,-20.46634483,2.454631329,21.13133297,
75.3876999,-4.659738541,-20.0842495,2.190771341,20.7337821,
75.3896999,-4.681651115,-19.56360626,1.836908221,20.19967274,
75.3916999,-4.712057114,-19.221838,1.597842336,19.855368,
75.3936999,-4.741333485,-18.67640114,1.261907101,19.31011684,
75.3956999,-4.713359356,-18.12890434,1.095155716,18.76358961,
75.3976999,-4.704299927,-17.6584816,0.9323787689,18.29813489,
75.3996999,-4.6733284,-17.07950783,0.7633960247,17.72377949,
75.4016999,-4.65829277,-16.67089272,0.6114025116,17.320282,
75.4036999,-4.596148968,-15.97874928,0.5833137035,16.63686475,
75.4056999,-4.508904457,-15.15103531,0.5797511339,15.81835016,
75.4076999,-4.419246197,-14.69163609,0.6598707438,15.3560847,
75.4096999,-4.245992184,-14.08506966,0.8026704788,14.7330213,
75.4116999,-4.005633354,-13.1695652,1.119461656,13.81071108,
75.4136999,-3.851006269,-12.56455994,1.37835145,13.2135638,
75.41570146,-3.619314671,-11.78841686,1.737127423,12.45326554,
75.4176999,-3.404832602,-11.34755898,1.942837119,12.00560685,
75.4196999,-3.144812822,-10.73569584,2.174902439,11.39628069,
75.4216999,-2.796169043,-9.921658516,2.524206877,10.61270415,
75.4236999,-2.541550636,-9.423118591,2.761395454,10.14297533,
75.4256999,-2.269913912,-9.022060394,2.923205376,9.751677425,
75.4276999,-1.914499402,-8.349740028,3.048460484,9.092666156,
75.4296999,-1.642537236,-7.810336113,3.099897385,8.562046634,
75.4316999,-1.349094391,-7.341752529,3.142744064,8.099273185,
75.4336999,-0.9551811814,-6.860517979,3.154140472,7.611023594,
75.4356999,-0.66175735,-6.467897415,3.137984276,7.219318879,
75.4376999,-0.3666001558,-6.088541031,3.069988966,6.828584027,
75.4396999,0.03465846181,-5.75206995,2.897472382,6.440718603,
75.4416999,0.3415089548,-5.443571568,2.6992805,6.085656497,
75.4436999,0.6699646711,-4.879334927,2.434845686,5.494109164,
75.4456999,0.9180039763,-4.568558216,2.2619555,5.179855032,
75.4476999,1.162442327,-4.245676041,2.040817499,4.852007138,
75.4496999,1.462636948,-3.876566887,1.774352431,4.507261277,
75.4516999,1.647498012,-3.614717722,1.518393159,4.252758128,
75.4536999,1.763118863,-3.228198051,1.319415808,3.907775436,
75.4556999,2.025465965,-2.718184948,1.159540653,3.582677255,
75.4576999,2.1673944,-2.439710617,1.044274211,3.426411389,
75.4596999,2.300780058,-2.125198841,0.9369756579,3.269247983,
75.4616999,2.364044428,-1.831219435,0.7815057635,3.090763972,
75.4636999,2.398741245,-1.473085284,0.7119877338,2.903595418,
75.4656999,2.474531889,-0.9679374099,0.6763524413,2.741835794,
75.4676999,2.471093893,-0.6544598341,0.6795319319,2.645068307,
75.4696999,2.501030922,-0.3018034995,0.7553706765,2.629985909,
75.4716999,2.478669167,0.1591856778,0.9572210312,2.661843913,
75.4736999,2.499297619,0.500723362,1.205336928,2.819583229,
75.4756999,2.508855343,0.8220922351,1.518929482,3.045872214,
75.4776999,2.495782852,1.19986856,2.056188345,3.449134256,
75.4796999,2.532711029,1.498942614,2.517455339,3.872858828,
75.4816999,2.507236719,1.756999254,3.021578312,4.301536684,
75.4836999,2.501749277,2.072852135,3.703647852,4.926710143,
75.4856999,2.484194994,2.30645895,4.187525749,5.387610747,
75.4876999,2.477529526,2.572263241,4.806263924,5.987893088,
75.4896999,2.488724947,2.724093914,5.185285568,6.364088775,
75.4916999,2.440668344,2.817506075,5.475769043,6.624141383,
75.4936999,2.324405909,2.88744545,5.753955841,6.844575361,
75.4956999,2.213496923,2.933519602,5.903354645,6.953754522,
75.4976999,2.112078667,2.974134684,6.059676647,7.072908488,
75.4996999,1.947280884,3.050509691,6.160826683,7.145159035,
75.5016999,1.780117631,3.069787741,6.14503479,7.09604595,
75.5036999,1.605963469,3.076826811,6.023140907,6.951561571,
75.5056999,1.368640661,3.047454834,5.755852699,6.655073142,
75.5076999,1.183511376,2.989677906,5.480298996,6.353939742,
75.5096999,0.9361424446,2.893660784,5.082306385,5.92279272,
75.5116999,0.7637216449,2.825981617,4.793000698,5.61625307,
75.5136999,0.6200215816,2.764192104,4.483085632,5.303135067,
75.5156999,0.4281502962,2.676918745,3.945682526,4.787234822,
75.5176999,0.3051074743,2.601530075,3.408548355,4.298749957,
75.5196999,0.1903390288,2.523536444,2.789196968,3.766176424,
75.5216999,0.06770802289,2.393780231,1.846657395,3.024055507,
75.5236999,-0.02785892971,2.298079252,1.085914016,2.541879938,
75.5256999,-0.09422620386,2.212232828,0.2723739743,2.230928113,
75.5276999,-0.1576629579,2.085445642,-0.797958672,2.238454641,
75.5296999,-0.1753896326,1.98777163,-1.511248946,2.503172178,
75.5316999,-0.1952327937,1.865925908,-2.345829248,3.003782649,
75.5336999,-0.1982398927,1.796541929,-2.869345427,3.391165749,
75.5356999,-0.2049149275,1.715598702,-3.288225412,3.714524922,
75.5376999,-0.1905114204,1.661441922,-3.705573082,4.065458858,
75.5396999,-0.1714344174,1.613318443,-3.923493147,4.245701901,
75.5416999,-0.1420527846,1.574944258,-4.050711632,4.348435711,
75.5436999,-0.1022132561,1.528879762,-4.11664772,4.39257434,
75.5456999,-0.07385633141,1.501413465,-4.114263058,4.380280545,
75.5476999,-0.04849694669,1.466716647,-4.052444935,4.309979075,
75.5496999,-0.03059789911,1.430995226,-3.965516329,4.215922594,
75.5516999,-0.02437297255,1.408595085,-3.889466763,4.136748222,
75.5536999,-0.01940261014,1.365116358,-3.731373072,3.973293864,
75.5556999,-0.007364564575,1.34947741,-3.598150015,3.842893057,
75.5576999,0.007019799203,1.314761519,-3.473383188,3.713897939,
75.5596999,-0.003102885559,1.267921329,-3.290169477,3.526024576,
75.5616999,0.007163451519,1.243452668,-3.152253866,3.388647266,
75.5636999,0.02075294033,1.2280339,-3.022018909,3.262069318,
75.5656999,0.03292506188,1.182103515,-2.845729113,3.081659774,
75.5676999,0.04260721058,1.167776585,-2.730615616,2.970148004,
75.5696999,0.04335420579,1.164089561,-2.628737688,2.875281886,
75.5716999,0.05687665567,1.169299483,-2.498522043,2.759186227,
75.5736999,0.06350380927,1.161570907,-2.401978016,2.668853329,
75.5756999,0.07508216798,1.164587617,-2.288971663,2.569298138,
75.5776999,0.07927680761,1.164846182,-2.178053141,2.47124805,
75.5796999,0.09200438112,1.161388874,-2.033797741,2.343847728,
75.5816999,0.09797073156,1.150979042,-1.815743446,2.152039796,
75.5836999,0.09252153337,1.149130583,-1.639281154,2.004071863,
75.5856999,0.09009859711,1.14807713,-1.440447569,1.844203908,
75.5876999,0.09000282735,1.142379045,-1.208909035,1.665710493,
75.5896999,0.08607634157,1.152405858,-1.051993012,1.562734045,
75.5916999,0.07783070952,1.176213861,-0.9124781489,1.490688779,
75.5936999,0.07537904382,1.21270144,-0.7391954064,1.422229458,
75.5956999,0.07739017159,1.248758197,-0.6233830452,1.397852887,
75.5976999,0.0817380473,1.276253223,-0.4946899414,1.371211704,
75.5996999,0.08257123083,1.307013869,-0.4137563407,1.373425488,
75.6016999,0.08462066948,1.337401152,-0.3512772918,1.385351303,
75.6036999,0.1059865206,1.352695227,-0.3003765643,1.389691908,
75.6056999,0.1258775443,1.361687899,-0.2739254236,1.39465918,
75.6076999,0.1218457073,1.380515814,-0.2533161044,1.408843262,
75.6096999,0.1345158219,1.380477548,-0.2468134612,1.408804334,
75.6116999,0.1427135766,1.378466487,-0.2416898757,1.406751939,
75.6136999,0.1622311026,1.373505592,-0.2579895854,1.406909794,
75.6156999,0.1955105066,1.363335133,-0.2972066402,1.408985035,
75.6176999,0.2043403387,1.356995225,-0.345282197,1.415065656,
75.6196999,0.2195195556,1.327939153,-0.4478210807,1.418504476,
75.6216999,0.2222681195,1.299342871,-0.5434550643,1.425846562,
75.6236999,0.2219233364,1.278561115,-0.6201269627,1.438237095,
75.6256999,0.2247197777,1.234402418,-0.7403063178,1.456812189,
75.6276999,0.2295081764,1.209339976,-0.803819716,1.470137176,
75.6296999,0.2313469201,1.1792593,-0.865724206,1.481098341,
75.6316999,0.2356469184,1.160967588,-0.9660603404,1.528609758,
75.6336999,0.229460299,1.144878507,-1.047482371,1.568635758,
75.6356999,0.2177861631,1.113476157,-1.126462221,1.598804898,
75.6376999,0.2215307057,1.067670345,-1.237534165,1.649389775,
