Time (s),Acceleration x (m/s^2),Acceleration y (m/s^2),Acceleration z (m/s^2),Absolute acceleration (m/s^2),Activity
0.0,-4.825532913,-1.777713895,8.463196754,9.903117383,
0.001699896,-4.865687847,-1.83731997,8.574948311,10.02897809,
0.003699896,-4.871281147,-1.860083938,8.633711815,10.08614257,
0.005699896,-4.879469395,-1.896878123,8.703919411,10.15704589,
0.007699896,-4.933482647,-1.975034475,8.754781723,10.24139713,
0.009699896,-4.974519253,-2.027074814,8.772499084,10.28647725,
0.011699896,-5.025907993,-2.096171379,8.752550125,10.30828886,
0.013699896,-5.083321095,-2.140406847,8.713294983,10.31227445,
0.015699896,-5.142687798,-2.167193174,8.65289402,10.29643331,
0.017699896,-5.19560957,-2.187074423,8.599072456,10.28210584,
0.019699896,-5.267751694,-2.216350794,8.51938343,10.25871887,
0.021699896,-5.307015896,-2.22530508,8.470436096,10.24034609,
0.023699896,-5.35134697,-2.249352455,8.429237366,10.23467359,
0.025699896,-5.375097752,-2.246249437,8.418568611,10.23765646,
0.027699896,-5.395420074,-2.252953291,8.407382965,10.24062716,
0.029699896,-5.421449661,-2.249658823,8.408647537,10.25467867,
0.031699896,-5.448800564,-2.258268595,8.411290169,10.27321794,
0.033699896,-5.460618496,-2.253930092,8.392911911,10.26350455,
0.035699896,-5.477799416,-2.23281312,8.335824966,10.22143428,
0.037699896,-5.475807667,-2.227766275,8.290028572,10.18194411,
0.039699896,-5.474706173,-2.229202986,8.232539177,10.13491268,
0.041699896,-5.480912209,-2.239967346,8.154698372,10.07754722,
0.043699896,-5.470454216,-2.235887527,8.111028671,10.03562895,
0.045699896,-5.464861393,-2.239124537,8.065175056,9.996271176,
0.047699896,-5.464918613,-2.227048159,8.059926987,9.989369449,
0.049699896,-5.459737778,-2.217375517,8.063422203,9.987205235,
0.051699896,-5.431907177,-2.218601227,8.069139481,9.9769143,
0.053699896,-5.403004169,-2.218783379,8.067511559,9.959929542,
0.055699896,-5.375940323,-2.18939209,8.058489799,9.931436448,
0.057699896,-5.340707302,-2.168821096,8.036607742,9.89009623,
0.059699896,-5.300609589,-2.133415699,8.008058548,9.83752643,
0.061699896,-5.253931999,-2.094792366,7.99836731,9.796215398,
0.063699896,-5.215442657,-2.056389332,7.996959686,9.766316779,
0.065699896,-5.201518059,-2.002653837,7.989565849,9.741641287,
0.067699896,-5.205348492,-1.933490276,8.006402016,9.743536873,
0.069699896,-5.208077908,-1.887818456,8.009687424,9.738738452,
0.071699896,-5.21084547,-1.849109054,8.007828712,9.731260735,
0.073699896,-5.212991238,-1.785030603,8.033677101,9.74174418,
0.075699896,-5.186079979,-1.726746082,8.070461273,9.747277709,
0.077699896,-5.187277317,-1.697058082,8.104276657,9.77072936,
0.079699896,-5.211449146,-1.705973983,8.116966248,9.795646507,
0.081699896,-5.213728428,-1.694817066,8.116602898,9.794621565,
0.083699896,-5.202514172,-1.699902296,8.131379128,9.801793103,
0.085699896,-5.216697216,-1.72822094,8.132940292,9.815569024,
0.087699896,-5.193828106,-1.706069827,8.117416382,9.786673253,
0.089699896,-5.13661623,-1.686887503,8.115347862,9.751373578,
0.091699896,-5.131971359,-1.68787396,8.13933754,9.769076933,
0.093699896,-5.164236069,-1.735087514,8.15171051,9.804603363,
0.095699896,-5.181033134,-1.753733635,8.14675045,9.812656567,
0.097699896,-5.184270382,-1.742097735,8.160367966,9.823602661,
0.099699896,-5.178122044,-1.719850779,8.18854332,9.839871762,
0.101699896,-5.166888237,-1.684560299,8.228747368,9.861377221,
0.103699896,-5.157752037,-1.64687562,8.274610519,9.888568381,
0.105699896,-5.140686035,-1.614065409,8.309307098,9.903355215,
0.107699896,-5.118439674,-1.562168717,8.3548069,9.92177374,
0.109699896,-5.096154213,-1.542737484,8.389072418,9.936164388,
0.111699896,-5.058019161,-1.527088881,8.410743713,9.93258114,
0.113699896,-5.055222511,-1.548339844,8.442453384,9.961307648,
0.115699896,-5.063698292,-1.564486384,8.460936546,9.983792129,
0.117699896,-5.079030991,-1.601768851,8.444561005,9.983628089,
0.119699896,-5.114072323,-1.63018322,8.42900753,9.992967577,
0.121699896,-5.156641006,-1.647670388,8.396944046,9.990717366,
0.123699896,-5.212492943,-1.657850623,8.318405151,9.955622313,
0.125699896,-5.268574715,-1.691580057,8.241905212,9.927150857,
0.127699896,-5.309803009,-1.733976722,8.140553474,9.872653855,
0.129699896,-5.421391964,-1.826000094,8.031540871,9.860599167,
0.131699896,-5.528259754,-1.938096642,7.970556259,9.891796681,
0.133699896,-5.569803715,-2.024354935,7.838376999,9.826539589,
0.135699896,-5.566921234,-2.048986673,7.761867523,9.769111826,
0.137699896,-5.580635071,-2.096046925,7.721587658,9.754989311,
0.139699896,-5.618770123,-2.157817364,7.682025909,9.759112436,
0.141699896,-5.631823063,-2.193241835,7.617344379,9.723768619,
0.143699896,-5.681526661,-2.248193502,7.623789787,9.770173486,
0.145699896,-5.732226372,-2.344603539,7.576307774,9.785500724,
0.147699896,-5.719958305,-2.397065163,7.464153767,9.704505957,
0.149699896,-5.672648907,-2.417684078,7.33723259,9.584316564,
0.151699896,-5.63604641,-2.429377079,7.251203537,9.499833938,
0.153699896,-5.603370667,-2.416228294,7.208931446,9.444819458,
0.155699896,-5.550956726,-2.372634649,7.213432789,9.406175012,
0.157699896,-5.514928818,-2.358374834,7.239424229,9.401363459,
0.159699896,-5.514143467,-2.357809782,7.313309669,9.457776877,
0.161699896,-5.640403748,-2.476993084,7.485461712,9.694420365,
0.163699896,-5.62976408,-2.514553547,7.482474327,9.695599269,
0.165699896,-5.591188908,-2.507811308,7.420330048,9.623502947,
0.167699896,-5.521584511,-2.506011009,7.368404865,9.542608498,
0.169699896,-5.482147694,-2.499249697,7.366690636,9.516739111,
0.171699896,-5.454699993,-2.498052597,7.414392471,9.537674481,
0.173699896,-5.452957153,-2.494116545,7.45677948,9.568642499,
0.175699896,-5.47476387,-2.472587824,7.536793709,9.637945289,
0.177699896,-5.551598072,-2.444058657,7.678874969,9.785641761,
0.179699896,-5.67443037,-2.45071435,7.776894093,9.934044623,
0.181699896,-5.789783001,-2.461383104,7.82584095,10.04110455,
0.183699896,-5.917633533,-2.479138374,7.803210735,10.10220825,
0.185699896,-6.030237198,-2.483610868,7.772871494,10.14640896,
0.187699896,-6.140303612,-2.515099287,7.731413364,10.18841526,
0.189699896,-6.273066998,-2.561805487,7.708649635,10.26340568,
0.191699896,-6.366613388,-2.602152586,7.701696873,10.32574931,
0.193699896,-6.445257664,-2.635125399,7.715305328,10.39284218,
0.195699896,-6.569421291,-2.664152861,7.735531807,10.49254301,
0.197699896,-6.644101143,-2.666115999,7.741402149,10.54426677,
0.199699896,-6.712862968,-2.639482975,7.687800884,10.54190125,
0.201699896,-6.746256828,-2.602133274,7.621452808,10.50569473,
0.203699896,-6.760564804,-2.538801908,7.550287724,10.44785128,
0.205699896,-6.763428211,-2.443330765,7.493803024,10.38609215,
0.207699896,-6.767680168,-2.363948584,7.464163303,10.3490812,
0.209699896,-6.752501011,-2.270775795,7.455323696,10.31186424,
0.211699896,-6.715007782,-2.160910606,7.43915844,10.25192384,
0.213699896,-6.650134563,-2.070275784,7.411414146,10.17051578,
0.215699896,-6.598008156,-1.983126879,7.389847279,10.10328395,
0.217699896,-6.506195545,-1.881794691,7.341905594,9.988759156,
0.219699896,-6.435939789,-1.797221899,7.304498672,9.899849917,
0.221699896,-6.365808487,-1.722915411,7.265616894,9.812295555,
0.223699896,-6.251595497,-1.639980197,7.255494118,9.716695745,
0.225699896,-6.167051792,-1.579972029,7.266373634,9.660694862,
0.227699896,-6.04941988,-1.494211674,7.341810226,9.629658707,
0.229699896,-5.964598179,-1.433379889,7.439004898,9.642085003,
0.231699896,-5.883300781,-1.387162089,7.529122353,9.65531616,
0.233699896,-5.793546677,-1.349410415,7.677859783,9.712652697,
0.235699896,-5.705440044,-1.312300324,7.804187775,9.75599944,
0.237699896,-5.618396282,-1.274672985,7.893309593,9.772180122,
0.239699896,-5.498667717,-1.234335423,8.029568672,9.809837086,
0.241699896,-5.39533329,-1.22855103,8.117655754,9.82421976,
0.243699896,-5.306901455,-1.218236804,8.18397522,9.829789131,
0.245699896,-5.221763611,-1.217480302,8.269294739,9.855471017,
0.247699896,-5.193291664,-1.225275755,8.337883949,9.899085197,
0.249699896,-5.159945488,-1.238118291,8.430664062,9.961629931,
0.251699896,-5.149525166,-1.260662079,8.512488365,10.02842642,
0.253699896,-5.158671379,-1.292552829,8.588307381,10.10156458,
0.255699896,-5.191280365,-1.331856132,8.663840294,10.18751006,
0.257699896,-5.226063251,-1.355932236,8.709483147,10.24721357,
0.259699896,-5.293091297,-1.384815812,8.693039894,10.27148835,
0.261699896,-5.400198936,-1.405204892,8.62690258,10.27424924,
0.263699896,-5.485508919,-1.418727279,8.566645622,10.27088177,
0.265699896,-5.578059196,-1.414724231,8.483498573,10.25114321,
0.267699896,-5.69863081,-1.434758902,8.35693264,10.21622481,
0.269699896,-5.789543629,-1.449085832,8.29123497,10.21583293,
0.271699896,-5.89508009,-1.47198391,8.202104568,10.20750828,
0.273699896,-5.971598625,-1.493397713,8.159985542,10.22133019,
0.275699896,-6.048710823,-1.505770922,8.120461464,10.23699873,
0.277699896,-6.155368328,-1.518038869,8.063699722,10.25749748,
0.279699896,-6.254133701,-1.527692318,8.007330894,10.27450146,
0.281699896,-6.358645439,-1.506785989,7.956429958,10.29599697,
0.283699896,-6.529457569,-1.462541223,7.883397579,10.34025147,
0.285699896,-6.65929985,-1.416812062,7.842533112,10.38551667,
0.287699896,-6.77735281,-1.380602002,7.773139477,10.40481957,
0.289699896,-6.91725111,-1.33340764,7.658821106,10.40595405,
0.291699896,-7.02124548,-1.291681409,7.560161114,10.39819047,
0.293699896,-7.167464256,-1.222603917,7.443496704,10.40542875,
0.295699896,-7.30287075,-1.190071583,7.378000259,10.44907074,
0.297699896,-7.435796738,-1.151553631,7.262322426,10.4574603,
0.299699896,-7.554405212,-1.07518816,7.069378376,10.40197954,
0.301699896,-7.597481728,-0.9939768314,6.890071869,10.3045043,
0.303699896,-7.609912395,-0.9063298106,6.682322502,10.16787266,
0.305699896,-7.615926743,-0.8012722731,6.418059826,9.991790096,
0.307699896,-7.60230875,-0.7561655045,6.287029743,9.89412086,
0.309699896,-7.576815605,-0.7417045236,6.2058568,9.821961054,
0.311699896,-7.564489841,-0.7134721279,6.128332615,9.761506527,
0.313699896,-7.549157143,-0.7100340724,6.096978664,9.729700447,
0.315699896,-7.539647579,-0.7151671648,6.042342663,9.688532115,
0.317699896,-7.512890339,-0.6953049302,5.967643738,9.619757896,
0.319699896,-7.478930473,-0.6590471268,5.887456894,9.5410111,
0.321699896,-7.421929836,-0.623344779,5.749685287,9.409170108,
0.323699896,-7.365243912,-0.5933502316,5.651292801,9.302472397,
0.325699896,-7.300361156,-0.5522848368,5.568759918,9.198444357,
0.327699896,-7.196194649,-0.4958870411,5.478316307,9.057763021,
0.329699896,-7.101154327,-0.4551281631,5.438515186,8.956058388,
0.331699896,-6.952302456,-0.415106684,5.416364193,8.822914715,
0.333699896,-6.841814518,-0.3865007758,5.423048973,8.738951248,
0.335699896,-6.742129326,-0.3711587191,5.436131001,8.668655426,
0.337699896,-6.598065376,-0.3530489802,5.460838795,8.572040051,
0.339699896,-6.473423481,-0.3539204597,5.451405525,8.470436438,
0.341699896,-6.359947681,-0.3698179722,5.445659637,8.38098495,
0.343699896,-6.243800163,-0.3866060972,5.43507719,8.287012056,
0.345699896,-6.159572124,-0.4096766412,5.42023325,8.215052781,
0.347699896,-6.084403992,-0.4396520257,5.427549839,8.165265647,
0.349699896,-5.993117809,-0.4687463939,5.450965405,8.114814114,
0.351699896,-5.920352936,-0.5047456026,5.496972084,8.094569111,
0.353699896,-5.841899872,-0.5525530577,5.55774641,8.082181275,
0.355699896,-5.71091795,-0.6086348295,5.630779266,8.043052613,
0.357699896,-5.597212315,-0.6424984336,5.672668457,7.995045801,
0.359699896,-5.44835043,-0.6842054129,5.705267429,7.918505913,
0.361699896,-5.327731133,-0.7072759271,5.732561588,7.857939973,
0.363699896,-5.192257404,-0.7263050675,5.757308006,7.786761296,
0.365699896,-5.012366772,-0.738247335,5.807758808,7.707067676,
0.367699896,-4.882648945,-0.745305419,5.852482319,7.658151878,
0.369699896,-4.784496307,-0.7573147416,5.926875114,7.654592031,
0.371699896,-4.652268887,-0.7841776609,6.040197372,7.664367208,
0.373699896,-4.570780277,-0.7990983129,6.137708664,7.694287368,
0.375699896,-4.520789146,-0.8258176446,6.242890835,7.751980087,
0.377699896,-4.455206871,-0.8504874706,6.363577843,7.814558219,
0.379699896,-4.433764458,-0.8744965196,6.434972763,7.863325371,
0.381699896,-4.440727234,-0.9138380885,6.501674652,7.926344157,
0.383699896,-4.479589939,-0.9373778701,6.528356075,7.972755881,
0.385699896,-4.57351923,-0.9672287703,6.544693947,8.042737625,
0.387699896,-4.765227318,-1.025168419,6.523375988,8.143266909,
0.389699896,-4.92956543,-1.070236921,6.482281685,8.21376882,
0.391699896,-5.116399288,-1.102233052,6.431659222,8.292086572,
0.393699896,-5.397737503,-1.189247966,6.374561787,8.437115553,
0.395699896,-5.569037437,-1.276789427,6.239146233,8.459983152,
0.397699896,-5.690117359,-1.40937078,5.929719448,8.338185312,
0.399699896,-5.823091507,-1.603099942,5.558465004,8.208218889,
0.401699896,-5.918820858,-1.725644827,5.406260967,8.199874881,
0.403699896,-6.031386852,-1.850746751,5.339041233,8.264880652,
0.405699896,-6.105894566,-1.91309166,5.329502583,8.327392504,
0.407699896,-6.177634239,-1.976212382,5.338840008,8.400701923,
0.409699896,-6.232020855,-2.030819416,5.331791401,8.449278725,
0.411699896,-6.25924778,-2.046228409,5.322502136,8.467246451,
0.413699896,-6.278573513,-2.071089745,5.304650784,8.476391805,
0.415699896,-6.249383926,-2.057146072,5.328669548,8.466485019,
0.417699896,-6.213777065,-2.041593313,5.38788271,8.473984232,
0.419699896,-6.206929684,-2.038030624,5.447105885,8.505910148,
0.421699896,-6.157245159,-2.00452137,5.5189991,8.508179884,
0.423699896,-6.125555515,-1.977773428,5.591936111,8.526650431,
0.425699896,-6.07084322,-1.941046357,5.650756359,8.51785453,
0.427699896,-5.971483707,-1.905420661,5.695623875,8.469319742,
0.429699896,-5.900519371,-1.858877301,5.732131004,8.433793898,
0.431699896,-5.771366596,-1.786965132,5.760056496,8.347464741,
0.433699896,-5.666040897,-1.714612246,5.759548664,8.259316886,
0.435699896,-5.543869495,-1.661058784,5.795088291,8.190033795,
0.437699896,-5.399873257,-1.582146049,5.839362144,8.109251973,
0.439699896,-5.290161133,-1.512771606,5.879986763,8.052858317,
0.441699896,-5.142888546,-1.432393432,5.96223259,8.003078845,
0.443699896,-5.045090199,-1.366265655,6.048174858,7.993749812,
0.445699896,-4.95422554,-1.299141765,6.138647079,7.994692489,
0.447699896,-4.880867481,-1.24102962,6.228391171,8.009736479,
0.449699896,-4.770130634,-1.198460817,6.359526157,8.039529062,
0.451699896,-4.683566093,-1.16947186,6.468826771,8.071503923,
0.453699896,-4.589014053,-1.149676561,6.616549015,8.13385069,
0.455699896,-4.538151741,-1.146822691,6.693440914,8.167752125,
0.457699896,-4.503838539,-1.156466484,6.751553059,8.197892718,
0.459699896,-4.461824894,-1.161772013,6.773455143,8.193734812,
0.461699896,-4.44174242,-1.156409025,6.768963814,8.178338992,
0.463699896,-4.434252739,-1.155594945,6.748517036,8.157234778,
0.465699896,-4.421084881,-1.138596177,6.729382992,8.131850234,
0.467699896,-4.39537096,-1.103794098,6.730244637,8.113805529,
0.469699896,-4.375700474,-1.074986935,6.742234707,8.10925893,
0.471699896,-4.366841793,-1.034879327,6.752405167,8.107728289,
0.473699896,-4.353080273,-0.9968881011,6.770467281,8.110630121,
0.475699896,-4.334204197,-0.9636948705,6.807797909,8.127739304,
0.477699896,-4.298272133,-0.966874361,6.864348412,8.156547583,
0.479699896,-4.276159286,-0.9834327102,6.924088955,8.197297481,
0.481699896,-4.236320019,-0.9969838858,7.009542465,8.250701167,
0.483699896,-4.227192879,-1.019135118,7.066448212,8.297137238,
0.485699896,-4.234509945,-1.054071307,7.122855663,8.353275621,
0.487699896,-4.29795599,-1.088451982,7.189567566,8.446717421,
0.489699896,-4.387058735,-1.122009158,7.200025558,8.505619139,
0.491699896,-4.544539452,-1.146238446,7.209563732,8.599099407,
0.493699896,-4.689685345,-1.185723662,7.199000359,8.673217131,
0.495699896,-4.840931892,-1.23455584,7.194077969,8.758624751,
0.497699896,-5.046354294,-1.313526154,7.18792963,8.880167509,
0.499699896,-5.209868908,-1.385409594,7.207476139,9.000544765,
0.501699896,-5.346903801,-1.472692609,7.250600815,9.128494725,
0.503699896,-5.52601862,-1.584865689,7.309220314,9.29910655,
0.505699896,-5.661319733,-1.660005331,7.330461502,9.409666553,
0.507699896,-5.789668083,-1.735432386,7.340765953,9.508881473,
0.509699896,-5.973054409,-1.852480054,7.375711918,9.670066578,
0.511699896,-6.122299194,-1.916874528,7.40055418,9.794138939,
0.513699896,-6.29511261,-1.98578918,7.422312737,9.932901278,
0.515699896,-6.546772003,-2.055814743,7.435605049,10.1180443,
0.517699896,-6.765870094,-2.099896669,7.421422005,10.25982791,
0.519699896,-7.076972961,-2.16054678,7.361930847,10.43788937,
0.521699896,-7.318394661,-2.178570271,7.3070364,10.56872035,
0.523699896,-7.547155857,-2.204063654,7.242507935,10.6897792,
0.525699896,-7.835063457,-2.225620985,7.134117603,10.82761479,
0.527699896,-8.037517548,-2.23778367,7.069847584,10.93581771,
0.529699896,-8.226965904,-2.247801065,7.041912079,11.06002276,
0.531699896,-8.477561951,-2.267318487,7.056028366,11.26043188,
0.533699896,-8.64977169,-2.285926342,7.08458662,11.41207155,
0.535699896,-8.816552162,-2.29093504,7.12357378,11.56396467,
0.537699896,-9.028515816,-2.290638208,7.158950329,11.74783772,
0.539699896,-9.156155586,-2.310059786,7.185746193,11.86619188,
0.541699896,-9.297796249,-2.32399416,7.211957932,11.99426118,
0.543699896,-9.377428055,-2.321580887,7.211900234,12.0555962,
0.545699896,-9.439101219,-2.300607681,7.199163437,12.09203795,
0.547699896,-9.495892525,-2.257962227,7.158356667,12.10423225,
0.549699896,-9.506896019,-2.197743177,7.12678194,12.08313568,
0.551699896,-9.498526573,-2.136882544,7.10460186,12.05253673,
0.553699896,-9.470762253,-2.027726173,7.103749275,12.01125576,
0.555699896,-9.437943459,-1.931708932,7.10846138,11.97232222,
0.557699896,-9.415829659,-1.819085717,7.143349648,11.95802514,
0.559699896,-9.366452217,-1.676640272,7.234291077,11.95309655,
0.561699896,-9.311902046,-1.56300199,7.339396477,11.95914861,
0.563699896,-9.239587784,-1.392630458,7.507977009,11.98662258,
0.565699896,-9.197593689,-1.272355318,7.643776417,12.02671758,
0.567699896,-9.167312622,-1.151371598,7.763017178,12.06771366,
0.569699896,-9.120040894,-0.9949823618,7.863621712,12.08311558,
0.571699896,-9.0905056,-0.877944231,7.874165535,12.05863015,
0.573699896,-9.060703278,-0.7672075629,7.83601141,12.0036672,
0.575699896,-9.025824547,-0.6184606552,7.726596832,11.89740732,
0.577699896,-9.007369995,-0.5195896626,7.629899502,11.81600838,
0.579699896,-8.991080284,-0.4123581648,7.542511463,11.74304233,
0.581699896,-8.976053238,-0.3124241531,7.465073109,11.67880375,
0.583699896,-8.972634315,-0.2439499944,7.43005991,11.65218728,
0.585699896,-8.984873772,-0.1872840226,7.43149662,11.6614825,
0.587699896,-8.984941483,-0.1713961214,7.465408325,11.68293078,
0.589699896,-8.998291016,-0.1782243848,7.515772343,11.72552084,
0.591699896,-9.012972832,-0.202961266,7.599703789,11.79111404,
0.593699896,-9.030622482,-0.2429540157,7.686383247,11.86135138,
0.595699896,-9.055455208,-0.2935674489,7.774567127,11.93864921,
0.597699896,-9.10140419,-0.400865972,7.905079365,12.06177978,
0.599699896,-9.155628204,-0.5000529885,7.997601032,12.167054,
0.601699896,-9.207333565,-0.6026684642,8.067578316,12.2565909,
0.603699896,-9.325147629,-0.7619498968,8.102677345,12.37708876,
0.605699896,-9.41212368,-0.8631192446,8.118307114,12.45953279,
0.607699896,-9.543230057,-0.9936032891,8.125308037,12.57303138,
0.609699896,-9.647032738,-1.073962331,8.117129326,12.65331673,
0.611699896,-9.740445137,-1.156657934,8.101528168,12.72198442,
0.613699896,-9.86548996,-1.262577534,8.078659058,12.81353684,
0.615699896,-9.928648949,-1.333656549,8.028131485,12.83774142,
0.617699896,-9.969398499,-1.406535983,7.965700626,12.83821001,
0.619699896,-10.01160336,-1.48005712,7.888003826,12.83134347,
0.621699896,-10.03711605,-1.521208763,7.812251568,12.80972479,
0.623699896,-10.05456543,-1.556604624,7.719174385,12.77117681,
0.625699896,-10.08512497,-1.584377289,7.528395176,12.68450752,
0.627699896,-10.10786057,-1.573440671,7.383067131,12.61563478,
0.629699896,-10.13489532,-1.553597569,7.246798515,12.55571015,
