Time (s),Acceleration x (m/s^2),Acceleration y (m/s^2),Acceleration z (m/s^2),Absolute acceleration (m/s^2),Activity
49.99851084,1.279557109,-9.492253304,-3.18380928,10.09340283,
50.00051084,1.271627545,-9.487168312,-3.233235359,10.10332668,
50.00254209,1.259752274,-9.474516869,-3.280171156,10.10509616,
50.00451084,1.255289555,-9.48029232,-3.331464529,10.12671468,
50.00651084,1.250941634,-9.481431961,-3.351355791,10.13380445,
50.00851084,1.258813858,-9.487876892,-3.342458725,10.13787209,
50.01051084,1.233291626,-9.496984482,-3.336798906,10.1413978,
50.01251084,1.215277553,-9.496648788,-3.331407309,10.13713532,
50.01451084,1.200941205,-9.511455536,-3.302657366,10.13990098,
50.01651084,1.178655863,-9.544656754,-3.25123024,10.15185699,
50.01851084,1.153507233,-9.572602272,-3.205788136,10.1608253,
50.02051084,1.138768554,-9.604215622,-3.139449596,10.16827888,
50.02251084,1.108199358,-9.624451637,-3.076156378,10.16468953,
50.02451084,1.075398803,-9.643384933,-3.000968933,10.15663183,
50.02651084,1.041506529,-9.683607101,-2.90138936,10.16243291,
50.02851084,1.00654161,-9.713870049,-2.802978039,10.16017142,
50.03051084,0.954788506,-9.735149384,-2.701310873,10.1479966,
50.03251084,0.9162801504,-9.763899803,-2.579340458,10.14033066,
50.03451084,0.8753871918,-9.762635231,-2.496481895,10.11473041,
50.03651084,0.8369266987,-9.76818943,-2.412100792,10.09634594,
50.03851084,0.7781921625,-9.76742363,-2.298136711,10.06427244,
50.04051084,0.7387069464,-9.764415741,-2.224060059,10.04171031,
50.04251084,0.7043933272,-9.760806084,-2.166043997,10.02303606,
50.04451084,0.67287606,-9.747073174,-2.07267952,9.98770234,
50.04651084,0.6430251002,-9.734670639,-2.020438194,9.962904407,
50.04851084,0.5866177082,-9.695262909,-1.981335878,9.913018464,
50.05051084,0.5475347638,-9.657654762,-1.963082671,9.870348697,
50.05251084,0.5140447021,-9.629537582,-1.9459306,9.837625827,
50.05451084,0.4605199099,-9.587303162,-1.95234704,9.794902729,
50.05651084,0.4343177676,-9.551725388,-1.963915825,9.761201523,
50.05851084,0.4011628628,-9.513838768,-1.978127837,9.725587359,
50.06051084,0.3417866528,-9.446284294,-2.050145149,9.672238635,
50.06251084,0.2997444868,-9.387761116,-2.107251883,9.62602805,
50.06451084,0.2395542413,-9.349701881,-2.173159361,9.601923407,
50.06651084,0.173732847,-9.286409378,-2.258795261,9.55875192,
50.06851084,0.1318343133,-9.231285095,-2.327154636,9.521011159,
50.07051084,0.0627855435,-9.170625687,-2.440352201,9.489975573,
50.07251084,0.02854846232,-9.094777107,-2.524657011,9.438732895,
50.07451084,0.0007374141132,-9.038877487,-2.603569746,9.406374551,
50.07651084,-0.05374504253,-8.979118347,-2.69506669,9.375011429,
50.07851084,-0.1032379791,-8.947984695,-2.763176918,9.365481027,
50.08051084,-0.1509591937,-8.919809341,-2.806109667,9.352007209,
50.08251084,-0.1863838136,-8.872442245,-2.838852882,9.317406078,
50.08451084,-0.2186863869,-8.83353138,-2.872936726,9.291548084,
50.08651084,-0.2452620268,-8.789411545,-2.920926094,9.265296434,
50.08851084,-0.2631227672,-8.770851135,-2.964969635,9.262187008,
50.09051084,-0.2528085411,-8.770477295,-2.986057758,9.268318352,
50.09251084,-0.2523009777,-8.758449554,-2.989562988,9.258054938,
50.09451084,-0.2498493195,-8.760806084,-2.991756201,9.260926146,
50.09651084,-0.2308585048,-8.770199776,-3.003497362,9.273116852,
50.09851084,-0.1909519434,-8.78753376,-3.02490139,9.295549508,
50.10051084,-0.1638878882,-8.807607651,-3.042130232,9.319622745,
50.10251084,-0.1585631818,-8.835207939,-3.042149305,9.345625394,
50.10451084,-0.1762994379,-8.898921967,-3.038644314,9.40506528,
50.10651084,-0.1608712077,-8.957244873,-3.028933287,9.456878561,
50.10851084,-0.1276396811,-8.998951912,-2.980426788,9.480525895,
50.11051084,-0.06493074447,-9.04765892,-2.939543486,9.513425453,
50.11251084,-0.00242293207,-9.074082375,-2.909079552,9.528993685,
50.11451084,0.06687483937,-9.082777023,-2.880722761,9.528896805,
50.11651084,0.1714727283,-9.114236832,-2.827552319,9.544305529,
50.11851084,0.2557581961,-9.116181374,-2.773021936,9.532042056,
50.12051084,0.3690901399,-9.130604744,-2.7004776,9.528732853,
50.12251084,0.4703074098,-9.142354965,-2.644951105,9.528882921,
50.12451084,0.5657785535,-9.1435709,-2.575461864,9.516196614,
50.12651084,0.6993175745,-9.157209396,-2.517187119,9.522592083,
50.12851084,0.789416194,-9.175806999,-2.483649254,9.53871719,
50.13051084,0.8890724778,-9.202478409,-2.454947233,9.565710881,
50.13251084,1.024229884,-9.234531403,-2.427921534,9.603146362,
50.13451084,1.120859861,-9.256577492,-2.438063383,9.637671231,
50.13651084,1.19831717,-9.283804893,-2.472501755,9.681852213,
50.13851084,1.307722569,-9.326516151,-2.526601076,9.750782268,
50.14051084,1.392304897,-9.359777451,-2.567407608,9.804872701,
50.14251084,1.496557951,-9.414632797,-2.64830327,9.893862068,
50.14451084,1.557954907,-9.454855919,-2.674035788,9.948466783,
50.14651084,1.618432522,-9.486621857,-2.727196693,10.00264564,
50.14851084,1.72128737,-9.504052162,-2.793257475,10.05445797,
50.15051084,1.78588295,-9.518503189,-2.856225014,10.09699471,
50.15251084,1.827551603,-9.557701111,-2.908255816,10.1561581,
50.15451084,1.867755055,-9.606322289,-2.980139494,10.22991536,
50.15651084,1.885175347,-9.620400429,-3.024863005,10.25942429,
50.15851084,1.889934897,-9.625829697,-3.075649023,10.28047023,
50.16051084,1.901273966,-9.643326759,-3.143175125,10.31930926,
50.16251084,1.896686673,-9.661599159,-3.176770449,10.34581022,
50.16451084,1.906445265,-9.678301811,-3.215910912,10.3752659,
50.16651084,1.889130473,-9.663314819,-3.280659676,10.37840041,
50.16851084,1.874918461,-9.637246132,-3.321868658,10.36468251,
50.17051084,1.833843589,-9.608343124,-3.351058722,10.33986627,
50.17251084,1.795076609,-9.590970993,-3.381886482,10.32696377,
50.17451084,1.738477826,-9.585186958,-3.434472561,10.32926502,
50.17651084,1.664937377,-9.564481735,-3.496674061,10.31882051,
50.17851084,1.63167727,-9.541554451,-3.566556215,10.31619868,
50.18051084,1.594528794,-9.483987808,-3.651655436,10.28703719,
50.1825124,1.609755874,-9.408302307,-3.707689524,10.23984511,
50.18451084,1.625107527,-9.322762489,-3.764154196,10.18448485,
50.18651084,1.544422865,-9.270483017,-3.784217834,10.13150541,
50.18851084,1.443885565,-9.24269104,-3.73453331,10.07267999,
50.19051084,1.346096754,-9.234933853,-3.672044754,10.02895271,
50.19251084,1.246785283,-9.203138351,-3.60803318,9.963439792,
50.19451084,1.182783604,-9.16252327,-3.563989401,9.902162904,
50.19651084,1.127889276,-9.121419907,-3.529991865,9.845469918,
50.19851084,1.056474924,-9.095064163,-3.45543623,9.786540294,
50.20051084,0.9980373383,-9.076601028,-3.440161467,9.757841753,
50.20251084,0.9363723397,-9.059620857,-3.431350946,9.732815243,
50.20451084,0.8511099815,-9.041291237,-3.424378872,9.705447238,
50.20651084,0.8085315228,-9.041741371,-3.41674614,9.699534238,
50.20851084,0.755753696,-9.027002335,-3.397257328,9.674672715,
50.21051084,0.7246865034,-9.028055191,-3.37088275,9.664046853,
50.21251084,0.7088752389,-9.016515732,-3.342037439,9.642057576,
50.21451084,0.7087986469,-9.016160965,-3.306947947,9.629613637,
50.21651084,0.7053413987,-9.010779381,-3.279098749,9.614787577,
50.21851084,0.711384356,-9.018010139,-3.263057709,9.616554486,
50.22051084,0.7345602512,-9.00822258,-3.261343241,9.608538523,
50.22251084,0.7472016215,-8.997420311,-3.250712872,9.595781192,
50.22451084,0.7649762034,-8.992172241,-3.229088545,9.584955036,
50.22651084,0.7776175737,-8.994632721,-3.206084967,9.580557796,
50.22851084,0.7905558348,-8.990102768,-3.207952738,9.57798972,
50.23051084,0.8115386367,-8.988791466,-3.192466736,9.573338542,
50.23251084,0.8352890611,-8.994402885,-3.200894594,9.583460611,
50.23451084,0.8443679214,-8.999373436,-3.222394228,9.596119215,
50.23651084,0.8353273869,-9.002706528,-3.272107601,9.615257918,
50.23851084,0.8095274568,-9.003893852,-3.291998625,9.620950792,
50.24051084,0.7942524552,-9.002781868,-3.324588299,9.629839338,
50.24251084,0.7796765566,-8.98324585,-3.345025301,9.617473462,
50.24451084,0.7383718491,-8.975919724,-3.351968527,9.609787764,
50.24651084,0.7002657056,-8.985160828,-3.372357607,9.622696243,
50.24851084,0.6266200542,-8.972634315,-3.407906771,9.618453504,
50.25051084,0.5869816542,-8.966227531,-3.429914236,9.617800958,
50.25251084,0.5179712176,-8.936520576,-3.451682329,9.593946273,
50.25451084,0.4561145604,-8.931732178,-3.460540771,9.589537143,
50.25651084,0.4039497077,-8.927480698,-3.471755266,9.587292193,
50.25851084,0.3382336795,-8.910529137,-3.493743658,9.576960701,
50.26051084,0.2986814678,-8.903087616,-3.497382879,9.570050508,
50.26251084,0.2646263242,-8.910194397,-3.481217146,9.569768237,
50.26451084,0.2387689501,-8.915442467,-3.456231117,9.564918114,
50.26651084,0.2344881147,-8.9242239,-3.425116301,9.561808331,
50.26851084,0.2434520125,-8.948932648,-3.375221014,9.56738111,
50.27051084,0.2774113715,-8.983150482,-3.275488377,9.565708221,
50.27251084,0.3152014613,-9.03387928,-3.180610895,9.582620334,
50.27451084,0.3735433221,-9.135038376,-3.043011189,9.635786311,
50.27651084,0.4249899685,-9.210695267,-2.921692133,9.672321784,
50.27851084,0.4819048941,-9.315015793,-2.778835058,9.732608891,
50.28051084,0.5735836625,-9.473855972,-2.617350817,9.845479699,
50.28251084,0.652046442,-9.610019684,-2.509315014,9.953607624,
50.28451084,0.7254431248,-9.767845154,-2.416055918,10.08832954,
50.28651084,0.8366681337,-9.99065876,-2.278705359,10.28133134,
50.28851084,0.9334609509,-10.1636734,-2.206352472,10.44220272,
50.29051084,1.039830565,-10.34829521,-2.163103819,10.62296943,
50.29251084,1.190014005,-10.59762669,-2.121416092,10.87318863,
50.29451084,1.30008018,-10.77517223,-2.098613501,11.05435316,
50.29651084,1.459294677,-10.98645496,-2.09657383,11.27951043,
50.29851084,1.588112354,-11.11658478,-2.10910964,11.42579982,
50.30051084,1.719017744,-11.22018623,-2.118858814,11.54717125,
50.30251084,1.905631304,-11.3338728,-2.140741825,11.69063209,
50.30451084,2.052041531,-11.39290428,-2.148642778,11.77394616,
50.30651084,2.196488619,-11.42421055,-2.154503822,11.83127363,
50.30851084,2.37342,-11.42811775,-2.166704655,11.87137763,
50.31051084,2.505704403,-11.39847851,-2.165794849,11.86990034,
50.31251084,2.622416973,-11.35179138,-2.149456739,11.84737957,
50.31451084,2.758829117,-11.27050304,-2.094936132,11.7908496,
50.31651084,2.867506504,-11.18035603,-2.0581038,11.72428018,
50.31851084,2.948679686,-11.08076763,-2.011196375,11.64143608,
50.32051084,3.026903152,-10.93137932,-1.934294701,11.50646307,
50.32251084,3.07815814,-10.80244637,-1.858762503,11.38520545,
50.32451084,3.142571688,-10.62841702,-1.762553811,11.22254877,
50.32651084,3.167595863,-10.46966171,-1.67909193,11.06647323,
50.32851084,3.184278488,-10.31309128,-1.583161116,10.90898164,
50.33051084,3.180677652,-10.10710335,-1.441347837,10.6933499,
50.33251084,3.163563967,-9.954957008,-1.341777682,10.53136617,
50.33451084,3.145684004,-9.805855751,-1.24573195,10.37313757,
50.33651084,3.119434118,-9.605489731,-1.122526288,10.16151403,
50.33851084,3.094563246,-9.444359779,-1.033337355,9.99199877,
50.34051084,3.079719067,-9.221736908,-0.9007369876,9.764037497,
50.34251084,3.069663525,-9.07256794,-0.8181370497,9.612682841,
50.34451084,3.057510614,-8.919742584,-0.7415704131,9.458335245,
50.34651084,3.032888412,-8.740838051,-0.6469899416,9.274656756,
50.34851084,3.015822649,-8.605297089,-0.5842618346,9.137159631,
50.35051084,3.006178617,-8.490854263,-0.5227404237,9.022470479,
50.35251084,3.008285761,-8.337280273,-0.479137212,8.876350491,
50.35451084,3.014501095,-8.243274689,-0.4466047883,8.788529472,
50.35651084,3.016847372,-8.161316872,-0.4287728071,8.711619096,
50.35851084,3.025351524,-8.042496681,-0.4081443548,8.60238842,
50.36051084,3.039123058,-7.979922295,-0.4465569258,8.550721717,
50.36251084,3.059253454,-7.932870865,-0.4927363098,8.516587399,
50.36451084,3.075150967,-7.896517754,-0.5623500943,8.492807765,
50.36651084,3.08781147,-7.890398026,-0.6315616965,8.496577596,
50.36851084,3.118476629,-7.887601376,-0.7545949221,8.515196148,
50.37051084,3.141805649,-7.889220238,-0.8386409879,8.53311534,
50.37251084,3.159292698,-7.926339626,-0.9271402359,8.582981955,
50.37451084,3.169559002,-8.024885178,-1.076164961,8.694999563,
50.37651084,3.160058737,-8.129808426,-1.197608352,8.804204792,
50.37851084,3.126980782,-8.259775162,-1.325420499,8.93076895,
50.38051084,3.059377909,-8.50206852,-1.498875618,9.159235253,
50.38251084,2.985492945,-8.721607208,-1.639338613,9.36306742,
50.38451084,2.891161442,-8.971858978,-1.775463343,9.59194131,
50.38651084,2.74585247,-9.342538834,-1.954846501,9.931976767,
50.38851084,2.632386446,-9.653621674,-2.097464323,10.22356231,
50.39051084,2.482969284,-10.08775806,-2.285083532,10.63718036,
50.39251084,2.384385586,-10.45038414,-2.425517797,10.98994813,
50.39451084,2.299123049,-10.81134415,-2.568011284,11.34750241,
50.39651084,2.176597357,-11.28221607,-2.773759365,11.8203095,
50.39851084,2.087437391,-11.63338757,-2.922458172,12.17513297,
50.40051084,1.991372466,-11.98939514,-3.047732592,12.52995747,
50.40251084,1.856531024,-12.46600533,-3.193644762,13.00182153,
50.40451084,1.757707953,-12.81955147,-3.289307594,13.35102923,
50.40651084,1.661192894,-13.17746544,-3.373372793,13.70345946,
50.40851084,1.528525352,-13.64768791,-3.484406233,14.16816367,
50.41051084,1.426340818,-14.00832176,-3.582070589,14.52923799,
50.41251084,1.282075763,-14.47718239,-3.7291224,15.00462869,
50.41451084,1.136881828,-14.83032703,-3.824325323,15.35762236,
50.41651084,1.002366066,-15.18183422,-3.903707504,15.70769749,
50.41851084,0.8023161888,-15.60537815,-4.002511501,16.13045681,
50.42051084,0.631973505,-15.88991451,-4.031672955,16.40558321,
50.42251084,0.4084029198,-16.17419243,-4.00629425,16.6679839,
50.42451084,0.06609912217,-16.49785042,-3.952826977,16.96491316,
50.42651084,-0.2319598347,-16.67202377,-3.901131392,17.12393086,
50.42851084,-0.5216582417,-16.81744766,-3.777226448,17.24430668,
50.43053115,-0.9429610968,-16.97654724,-3.557678461,17.37093572,
50.43251084,-1.254791498,-17.01789093,-3.33295846,17.38653863,
50.43451396,-1.674293995,-16.99876595,-2.859797478,17.3187686,
50.43651084,-2.006159067,-16.93258095,-2.441290855,17.22489108,
50.43851084,-2.349506855,-16.82600021,-1.936832547,17.09929197,
50.44051084,-2.84826684,-16.60873985,-1.134334445,16.88933326,
50.44251084,-3.223591566,-16.40356636,-0.4190906286,16.72256466,
50.44451084,-3.606414795,-16.18479347,0.4132583737,16.58687885,
50.44651084,-4.108392715,-15.86582947,1.61553061,16.46855715,
50.44851084,-4.458070755,-15.61223507,2.528909206,16.43203154,
50.45051084,-4.790203571,-15.3165884,3.397726536,16.40391649,
50.45251084,-5.185735226,-14.89527702,4.42027092,16.37986332,
50.45451084,-5.446243763,-14.56163979,5.066054344,16.35138621,
50.45651084,-5.695518494,-14.11192322,5.712296963,16.25471145,
50.45851084,-5.838030815,-13.77527905,6.067491055,16.14482469,
50.46051084,-5.88811779,-13.43735123,6.311862946,15.9709722,
50.46251084,-5.787858009,-12.94613743,6.442853928,15.57601173,
50.46451084,-5.598160744,-12.58658695,6.39358139,15.18681855,
50.46651084,-5.370788097,-12.25662708,6.242201328,14.7660201,
50.46851084,-5.050884247,-11.84549522,5.928704262,14.17662594,
50.47051084,-4.812594414,-11.562356,5.649645329,13.7392734,
50.47251084,-4.550553799,-11.28309631,5.348081589,13.28976219,
50.47451084,-4.171618462,-10.91719627,4.938941479,12.6878177,
50.4765124,-3.860458851,-10.64696693,4.636189461,12.23745481,
50.47851084,-3.390036345,-10.30345726,4.25372076,11.65108228,
50.48051084,-3.019050121,-10.05270672,3.951131821,11.21530288,
50.48251084,-2.647230387,-9.818314552,3.632176161,10.79814026,
50.48451084,-2.181127548,-9.545547485,3.203212023,10.30220178,
50.48651084,-1.852757812,-9.357163429,2.846437693,9.954467665,
50.48851084,-1.553597569,-9.188630104,2.465376377,9.639640516,
50.49051084,-1.206170082,-9.007561684,1.884686947,9.281328495,
50.49251084,-0.9658018351,-8.872451782,1.39335835,9.032974112,
50.49451084,-0.7299250364,-8.766273499,0.8798020482,8.840497342,
50.49651084,-0.3972842395,-8.642464638,0.175380066,8.65336859,
50.49851084,-0.1208209917,-8.55371666,-0.3699616194,8.562566088,
50.50051084,0.2445916384,-8.447950363,-1.072353363,8.51925068,
50.50254521,0.5443361402,-8.3611269,-1.56186235,8.523154279,
50.50451084,0.8319180012,-8.295956612,-1.998928547,8.573838055,
50.50651084,1.195482373,-8.213041306,-2.557342529,8.684654651,
50.50851084,1.454621196,-8.177070618,-2.945567131,8.812308008,
50.51051084,1.720262647,-8.147094727,-3.294957876,8.95495413,
50.51251084,2.053717613,-8.126389503,-3.736238003,9.176896905,
50.51451084,2.279088497,-8.116688728,-4.012021065,9.336551468,
50.51651084,2.502180099,-8.091405869,-4.269148827,9.484586753,
50.51851084,2.775665045,-8.067674637,-4.560686111,9.674272494,
50.52051084,2.975245714,-8.036530495,-4.750737667,9.798337504,
50.52251084,3.23858881,-7.982938766,-4.94646883,9.933947992,
50.52451084,3.431839228,-7.938655853,-5.072920799,10.02667954,
50.52651084,3.620262623,-7.871579647,-5.194335461,10.10193984,
50.52851084,3.83156538,-7.778607845,-5.314831257,10.17030307,
50.53051084,3.967479467,-7.706696033,-5.375662804,10.19959841,
50.53251084,4.077440262,-7.631211281,-5.39913559,10.19860627,
50.53451084,4.1690135,-7.531842232,-5.370040894,10.14626336,
50.53651084,4.215231419,-7.454481125,-5.305158138,10.0738358,
50.53851084,4.223074913,-7.377119541,-5.204841137,9.967277748,
50.54051084,4.177949429,-7.280029774,-5.028293133,9.784570852,
50.54251084,4.123571873,-7.196395397,-4.875724792,9.621052123,
50.54451084,4.029613972,-7.071456432,-4.644703388,9.371048735,
50.54651084,3.935789824,-6.994755745,-4.46558857,9.184690019,
50.54851084,3.827821016,-6.90741539,-4.272883892,8.978983119,
50.55051084,3.68652463,-6.810268402,-4.02032423,8.725435603,
50.55251084,3.573384285,-6.74435091,-3.833279848,8.541040852,
50.55451084,3.461402893,-6.701791763,-3.669248343,8.38800967,
50.55651084,3.312981367,-6.700642586,-3.435056925,8.226425267,
50.55851084,3.212147236,-6.724211216,-3.271121025,8.138374475,
50.56051084,3.103536606,-6.781202793,-3.085886478,8.070895003,
50.56251084,2.971750259,-6.913535118,-2.82966876,8.039607747,
50.56451084,2.852432966,-7.047687054,-2.638008118,8.047692431,
50.56651084,2.745833158,-7.209985256,-2.446299553,8.093693139,
50.56851084,2.587097645,-7.435011387,-2.210958958,8.17684585,
50.57051084,2.453434229,-7.616329193,-2.011388063,8.250666145,
50.57251084,2.291270256,-7.872805595,-1.770598412,8.388444794,
50.57451084,2.170056581,-8.059332848,-1.60422051,8.499147896,
50.57651084,2.060737371,-8.241522789,-1.451269269,8.618324599,
50.57851084,1.91513145,-8.485443115,-1.270028234,8.791100332,
50.58051084,1.820541382,-8.642321587,-1.156303763,8.907363904,
50.58251084,1.72822094,-8.795339584,-1.047080159,9.024473551,
50.58451084,1.582337499,-8.974885941,-0.9146137834,9.159087726,
50.58651084,1.482776999,-9.079981804,-0.8266220689,9.237315694,
50.58851084,1.382938862,-9.16740799,-0.7439934015,9.300936261,
50.59051084,1.270842314,-9.255428314,-0.656978488,9.365341115,
50.59251084,1.201362491,-9.301665306,-0.6043730974,9.398378378,
50.59451084,1.119241476,-9.324726105,-0.5555697083,9.408075048,
50.59651084,1.087513447,-9.341658592,-0.5188809633,9.419050281,
50.59851084,1.048344374,-9.349414825,-0.5053777099,9.421570471,
50.60051084,1.013915658,-9.343764305,-0.4872679412,9.411237241,
50.60251084,0.9986215234,-9.328681946,-0.4874977767,9.394637081,
50.60451084,0.9828197956,-9.330165863,-0.482326299,9.394177369,
50.60651084,0.9777536392,-9.301722527,-0.5078293681,9.366746223,
50.60851084,0.9726012945,-9.276698112,-0.5086433887,9.341402424,
50.61051084,0.9613773227,-9.222723961,-0.5204898715,9.287292034,
50.61251084,0.9514653087,-9.146118164,-0.5606550574,9.212551102,
50.61451084,0.9422236681,-9.094586372,-0.5910613537,9.162349057,
50.61651084,0.9233478308,-9.01636219,-0.6308051348,9.085442944,
50.61851084,0.9092316031,-8.9572258,-0.6794170141,9.028853948,
50.62051084,0.8924338818,-8.874271393,-0.7608773112,8.951428113,
50.62251084,0.8783464432,-8.743270874,-0.8530732393,8.828590601,
50.62451084,0.8637034893,-8.650251389,-0.9019820094,8.739931599,
