,Time (s),Acceleration x (m/s^2),Acceleration y (m/s^2),Acceleration z (m/s^2),Absolute acceleration (m/s^2),Activity
0,0.0,-0.4522934258,-1.055814266,8.663313866,8.739125828,1
1,0.000510838,-0.4643219113,-1.057767987,8.639716148,8.716602726,1
2,0.002540525,-0.4611328244,-1.043076992,8.626844406,8.701901947,1
3,0.004510838,-0.442410171,-1.043728232,8.614154816,8.688426703,1
4,0.006510838,-0.4175487757,-1.027955294,8.589897156,8.661256965,1
5,0.008510838,-0.3884352744,-1.007106543,8.583892822,8.651494757,1
6,0.010510838,-0.3700765371,-0.9966008067,8.587991714,8.65354098,1
7,0.012510838,-0.3169348538,-0.9926647544,8.595529556,8.658461721,1
8,0.014510838,-0.1051916406,-0.9807032943,8.570006371,8.626578315,1
9,0.016510838,0.0462847054,-0.9897342324,8.624977112,8.681701809,1
10,0.018510838,0.1158889383,-0.9843425155,8.668169022,8.724649828,1
11,0.020510838,0.1626907885,-0.9848021865,8.737735748,8.794562505,1
12,0.022510838,0.1823519766,-0.97533077,8.771664619,8.827605709,1
13,0.024510838,0.2109291703,-0.9721800089,8.812252045,8.868224805,1
14,0.026510838,0.2446874082,-0.9634937644,8.835829735,8.891573498,1
15,0.028510838,0.2832148969,-0.9648249745,8.858230591,8.915119018,1
16,0.030510838,0.3070803285,-0.974861443,8.849926949,8.908751885,1
17,0.032510838,0.3132956624,-0.9934979081,8.854456902,8.915525744,1
18,0.034510838,0.3063811958,-1.006761789,8.870326042,8.932531715,1
19,0.036510838,0.2915754616,-1.026030421,8.907541275,8.971178643,1
20,0.038510838,0.2522435188,-1.059549212,8.95689106,9.02286921,1
21,0.040510838,0.2283493876,-1.06088984,8.998271942,9.063472218,1
22,0.042510838,0.1907604188,-1.059941769,9.033638954,9.097609513,1
23,0.044510838,0.1406928748,-1.049234986,9.093992233,9.155401863,1
24,0.046510838,0.1184076369,-1.042387605,9.157064438,9.216963785,1
25,0.048510838,0.08798212558,-1.02187407,9.224973679,9.281815924,1
26,0.050510838,0.04239652306,-1.010669112,9.29893589,9.353793787,1
27,0.052510838,0.0293337591,-1.006101012,9.342472076,9.396535756,1
28,0.054510838,0.01413536631,-0.9786060452,9.386496544,9.437382421,1
29,0.056510838,0.01398213767,-0.9641929269,9.420781136,9.470004261,1
30,0.058510838,0.02110728249,-0.9535051584,9.460927963,9.508878774,1
31,0.060510838,0.03705266491,-0.9166249633,9.522784233,9.566869591,1
32,0.062510838,0.04138138145,-0.8965423703,9.564749718,9.60676521,1
33,0.064510838,0.05101565272,-0.8911314607,9.628119469,9.669405482,1
34,0.066510838,0.08603803068,-0.8696507215,9.695798874,9.735101988,1
35,0.068510838,0.1135521978,-0.856271863,9.748806953,9.786998141,1
36,0.070510838,0.1350617111,-0.8400679231,9.790561676,9.827464257,1
37,0.072510838,0.1751023382,-0.8034366369,9.848577499,9.882846251,1
38,0.074510838,0.2018407732,-0.7743039727,9.891558647,9.92387116,1
39,0.076510838,0.2419005632,-0.7384675741,9.938312531,9.968646157,1
40,0.078510838,0.2663214207,-0.70376122,9.964600563,9.992971096,1
41,0.080510838,0.2881278098,-0.6835924387,10.00227547,10.02974729,1
42,0.082510838,0.3152205944,-0.6539618373,10.05482292,10.08099668,1
43,0.084510838,0.3233417273,-0.6309296489,10.0830555,10.10794886,1
44,0.086510838,0.3272395134,-0.6196576953,10.12753963,10.15175455,1
45,0.088510838,0.3433763981,-0.6060586572,10.17764664,10.20145605,1
46,0.090510838,0.3471209407,-0.5891076922,10.20907688,10.23194955,1
47,0.092510838,0.3482797146,-0.5655200481,10.24578476,10.26728869,1
48,0.094510838,0.3461632729,-0.5445563793,10.27255154,10.29279776,1
49,0.096510838,0.3307062984,-0.5343571305,10.30457687,10.32372068,1
50,0.098510838,0.3042072654,-0.5379388332,10.33090305,10.34937091,1
51,0.100517088,0.2804759443,-0.5305168033,10.35234547,10.36972379,1
52,0.102510838,0.2719717324,-0.5162952542,10.34683037,10.36327304,1
53,0.104510838,0.2388838679,-0.5120718479,10.3339777,10.34941439,1
54,0.106510838,0.2112356275,-0.5046881437,10.32965946,10.34413821,1
55,0.108510838,0.1862593144,-0.5132498145,10.32343388,10.33786269,1
56,0.110510838,0.170725733,-0.5179232955,10.32094383,10.33534099,1
57,0.112510838,0.1438149065,-0.5166208744,10.32539749,10.33931396,1
58,0.114510838,0.1180820316,-0.5266765356,10.32169056,10.33579351,1
59,0.116510838,0.1018397585,-0.5328343511,10.31383801,10.32809461,1
60,0.118510838,0.09329725057,-0.5335047841,10.29580498,10.31004034,1
61,0.120510838,0.07638461143,-0.5360330343,10.28706169,10.3013011,1
62,0.122510838,0.08034940809,-0.5266573429,10.24492264,10.25876522,1
63,0.124510838,0.07577169687,-0.5200493336,10.20626163,10.21978323,1
64,0.126510838,0.07015010715,-0.520719707,10.12016582,10.13379625,1
65,0.128510838,0.07701668143,-0.5089402199,10.06409359,10.07724821,1
66,0.130510838,0.09253110737,-0.5073121786,9.99698925,10.0102808,1
67,0.132510838,0.09975202382,-0.5209590793,9.941932678,9.956072228,1
68,0.134510838,0.09522219002,-0.5372971892,9.885352135,9.900401121,1
69,0.136510838,0.08068460226,-0.5560485721,9.857244492,9.873245109,1
70,0.138510838,0.08108682185,-0.5677322149,9.826090813,9.842812383,1
71,0.140510838,0.07469909638,-0.5855163932,9.799132347,9.816893814,1
72,0.142510838,0.06565858424,-0.6135956049,9.774270058,9.793730943,1
73,0.144510838,0.0580929108,-0.6344826221,9.746067047,9.766870833,1
74,0.146510838,0.04796064645,-0.6626671553,9.727440834,9.750104264,1
75,0.148510838,0.0393127948,-0.6740635633,9.693863869,9.717350662,1
76,0.150510838,0.0333272852,-0.6828742027,9.667240143,9.691385859,1
77,0.152510838,0.01033337507,-0.6846746206,9.65290451,9.67716134,1
78,0.154510838,-0.03769431263,-0.6921445131,9.623398781,9.648330891,1
79,0.156510838,-0.07994718105,-0.7001891136,9.606820107,9.632634578,1
80,0.158510838,-0.1149312556,-0.6971723437,9.585990906,9.611996677,1
81,0.160510838,-0.1666364372,-0.7058010697,9.565505981,9.592957184,1
82,0.162510838,-0.190482676,-0.7164505124,9.559462547,9.588165058,1
83,0.164510838,-0.2227756828,-0.7202333212,9.576461792,9.606091062,1
84,0.166510838,-0.2552123368,-0.7239587307,9.585253716,9.615941887,1
85,0.168510838,-0.2766739428,-0.7304039598,9.59591198,9.627645877,1
86,0.170510838,-0.3112462163,-0.7412927151,9.612565994,9.646129488,1
87,0.172510838,-0.3369503915,-0.7484945059,9.632457733,9.667368906,1
88,0.174510838,-0.3490554392,-0.7427100539,9.651706696,9.68653189,1
89,0.176510838,-0.3646177649,-0.7416757941,9.67463398,9.709869811,1
90,0.178510838,-0.3829765022,-0.7287853956,9.688702583,9.723618509,1
91,0.180510838,-0.3952827156,-0.7129070759,9.69576931,9.729975716,1
92,0.182510838,-0.3883586824,-0.6907655001,9.712327957,9.744603316,1
93,0.184510838,-0.397696048,-0.6710468531,9.723638535,9.754876338,1
94,0.186510838,-0.3744914532,-0.642958045,9.757894516,9.786222166,1
95,0.188510838,-0.353125602,-0.6210080385,9.770755768,9.796837089,1
96,0.190510838,-0.3318172097,-0.5972958207,9.80192852,9.825714614,1
97,0.192510838,-0.2815868556,-0.5616509914,9.819923401,9.840001961,1
98,0.194510838,-0.2524637878,-0.5400074124,9.83143425,9.8494896,1
99,0.196510838,-0.216981709,-0.5278927684,9.847542763,9.864068648,1
100,0.198510838,-0.174738422,-0.4993921816,9.873659134,9.887824369,1
101,0.200510838,-0.1311639398,-0.4872583747,9.896528244,9.909384239,1
102,0.202510838,-0.08620083332,-0.4712363482,9.904477119,9.916055732,1
103,0.204510838,-0.04527914524,-0.4561241567,9.931838036,9.942409477,1
104,0.206510838,0.004223371856,-0.4474762976,9.963632584,9.973676711,1
105,0.208510838,0.08087613434,-0.4224425256,9.978793144,9.988058433,1
106,0.210510838,0.1332516968,-0.4101363122,10.00779152,10.01707836,1
107,0.212510838,0.1878873706,-0.4033271968,10.03845692,10.04831288,1
108,0.214510838,0.2481063455,-0.371819526,10.05931568,10.0692422,1
109,0.216510838,0.2951093018,-0.3562667966,10.08707809,10.09768092,1
110,0.218510838,0.3362704217,-0.3361267745,10.0892334,10.10043017,1
111,0.220510838,0.367787689,-0.3229969442,10.0538187,10.06572726,1
112,0.222510838,0.3894408643,-0.3111791611,10.02160168,10.03399207,1
113,0.224510838,0.4000040591,-0.2970438302,10.01243687,10.0248257,1
114,0.226510838,0.3877840638,-0.2802269161,10.00220871,10.01364482,1
115,0.228510838,0.3782072365,-0.2923128605,9.993167877,10.00459353,1
116,0.230510838,0.3427443206,-0.2875627875,10.01344204,10.02343192,1
117,0.232510838,0.3222308159,-0.2897462845,10.05867386,10.06800404,1
118,0.234510838,0.2976184487,-0.3087849617,10.11109638,10.1201875,1
119,0.236510838,0.2457121313,-0.3307445943,10.17858505,10.18692103,1
120,0.238510838,0.2127104551,-0.3472741842,10.18682003,10.19495696,1
121,0.240510838,0.1822370589,-0.3538247049,10.1916275,10.19939574,1
122,0.242510838,0.126394704,-0.370881021,10.20001793,10.20754104,1
123,0.244510838,0.07422982901,-0.3762152791,10.19024944,10.19746202,1
124,0.246510838,0.03222595528,-0.3823635876,10.18685913,10.19408355,1
125,0.248510838,-0.01682645082,-0.3893067539,10.15357018,10.16104474,1
126,0.250510838,-0.05647442862,-0.3831584752,10.13486576,10.14226325,1
127,0.252510838,-0.08969637007,-0.3803524375,10.12995338,10.1374883,1
128,0.254510838,-0.1218840182,-0.3848918676,10.1158371,10.12389044,1
129,0.256510838,-0.1405396461,-0.3867976367,10.11530113,10.12366933,1
130,0.258510838,-0.1618097275,-0.3919882774,10.11217022,10.12105843,1
131,0.260510838,-0.1700362116,-0.4205367565,10.11005306,10.12022413,1
132,0.262510838,-0.1640219688,-0.4390104115,10.09991074,10.11077792,1
133,0.264510838,-0.1487373859,-0.4414812326,10.08469296,10.09544751,1
134,0.266510838,-0.1567914784,-0.4548983276,10.06615353,10.07764669,1
135,0.268510838,-0.1650371104,-0.4603379369,10.03951931,10.0514226,1
136,0.270510838,-0.1702947915,-0.4631822407,10.01107693,10.02323298,1
137,0.272510838,-0.180312112,-0.4694454968,9.974570274,9.987239042,1
138,0.274510838,-0.1824381649,-0.4792234302,9.940342903,9.953559957,1
139,0.276510838,-0.2158133388,-0.4874307215,9.893885612,9.908235797,1
140,0.278510838,-0.2246910334,-0.4949198067,9.870613098,9.885566985,1
141,0.280510838,-0.2570415139,-0.4992868304,9.849143028,9.865139435,1
142,0.282510838,-0.2632568479,-0.5127900839,9.837324142,9.854197284,1
143,0.284510838,-0.2701617181,-0.5288025737,9.810509682,9.82846477,1
144,0.286510838,-0.280169487,-0.5325949788,9.793684006,9.812155663,1
145,0.288510838,-0.2822763622,-0.5537692904,9.783502579,9.803227177,1
146,0.290510838,-0.284842968,-0.5651752353,9.77628231,9.796747132,1
147,0.292510838,-0.2971204221,-0.5713139772,9.743461609,9.764718344,1
148,0.294510838,-0.3092638254,-0.5709213018,9.698441505,9.72015241,1
149,0.296510838,-0.3082582653,-0.5771271586,9.678607941,9.700698459,1
150,0.298510838,-0.3093212843,-0.5844246149,9.66024971,9.682853724,1
151,0.300510838,-0.3150099218,-0.5934938788,9.621961594,9.64539326,1
152,0.302510838,-0.3137649298,-0.6051009297,9.597272873,9.621446989,1
153,0.304510838,-0.2989591658,-0.6116418839,9.571787834,9.595968149,1
154,0.306510838,-0.2835501134,-0.6126666069,9.553210258,9.577034368,1
155,0.308510838,-0.2708129585,-0.6073132157,9.533126831,9.556289875,1
156,0.310510838,-0.244562909,-0.6191405654,9.515735626,9.538992115,1
157,0.312510838,-0.2265776694,-0.6389262676,9.499464989,9.523623223,1
158,0.314510838,-0.2190407217,-0.6372023821,9.471950531,9.495886087,1
159,0.316510838,-0.2016588151,-0.6420866251,9.456684113,9.480602086,1
160,0.318510838,-0.201735422,-0.6549003124,9.449760437,9.474574603,1
161,0.320510838,-0.1977131814,-0.6798000336,9.435913086,9.462434906,1
162,0.322510838,-0.1961713135,-0.6969138384,9.421011925,9.448790281,1
163,0.324510838,-0.19854635,-0.7078505158,9.410169601,9.438843411,1
164,0.326510838,-0.193451494,-0.7383718491,9.404960632,9.435883687,1
165,0.328510838,-0.1911530644,-0.7512909174,9.388422012,9.420373953,1
166,0.330510838,-0.1980770826,-0.7752712369,9.387042046,9.421084778,1
167,0.332510838,-0.1942942441,-0.800324142,9.379313469,9.415401751,1
168,0.334510838,-0.1920532882,-0.8186925054,9.377168655,9.414798664,1
169,0.336510838,-0.19339405,-0.8512536287,9.408953667,9.449362047,1
170,0.338510838,-0.2129594535,-0.8772354722,9.716072083,9.757917325,1
171,0.340510838,-0.2219808102,-0.8873869181,9.788617134,9.831264233,1
172,0.342510838,-0.2081710547,-0.885184288,9.75613308,9.798419213,1
173,0.344510838,-0.2079603523,-0.8889191747,9.707281113,9.75011443,1
174,0.346510838,-0.2079412043,-0.886180222,9.731606483,9.774084084,1
175,0.348510838,-0.172210142,-0.9108117819,9.745607376,9.789591287,1
176,0.350510838,-0.1305797547,-0.9130240679,9.777766228,9.821169809,1
177,0.352510838,-0.03936067596,-0.9490711093,9.838502884,9.884251324,1
178,0.354510838,0.0188663099,-0.9932202101,9.918478966,9.968102493,1
179,0.356510838,0.0876660943,-1.020514131,9.987728119,10.04011192,1
180,0.358510838,0.1657074839,-1.085713029,10.06650639,10.12624227,1
181,0.360510838,0.2306095064,-1.132313728,10.10713196,10.17297555,1
182,0.362510838,0.2808781862,-1.174739003,10.15557098,10.22714654,1
183,0.364510838,0.3422559202,-1.233780026,10.1799736,10.26017616,1
184,0.366510838,0.4012969434,-1.280735135,10.19539165,10.28335221,1
185,0.368510838,0.4889151454,-1.327029467,10.1879034,10.28559289,1
186,0.370510838,0.5338590741,-1.369062066,10.18225288,10.28774077,1
187,0.372510838,0.5657115579,-1.410587072,10.16801167,10.28096526,1
188,0.374510838,0.6435422301,-1.454640388,10.11972523,10.24397208,1
189,0.376510838,0.7088273168,-1.496730328,10.11159515,10.24631614,1
190,0.378510838,0.7705307007,-1.523382664,10.0879879,10.2314179,1
191,0.380510838,0.8506407142,-1.563164711,10.0696106,10.22566042,1
192,0.382510838,0.9047879577,-1.590037227,10.05400944,10.21909807,1
193,0.384510838,0.962028563,-1.601395369,10.04631901,10.21853667,1
194,0.386510838,1.044762611,-1.617877007,10.01617146,10.19964438,1
195,0.388510838,1.100643277,-1.632740259,9.98289299,10.17523507,1
196,0.390510838,1.186642885,-1.649691105,9.920460701,10.12645755,1
197,0.392510838,1.234709024,-1.661192894,9.891021729,10.10526492,1
198,0.394510838,1.268926859,-1.673451185,9.873228073,10.09411942,1
199,0.396510838,1.315518022,-1.683248281,9.842448235,10.07162845,1
200,0.398510838,1.339517593,-1.687289715,9.805060387,10.03894731,1
201,0.400510838,1.35959053,-1.69377315,9.776913643,10.01525807,1
202,0.402510838,1.37614882,-1.712725759,9.720899582,9.966097721,1
203,0.404510838,1.385821462,-1.718347311,9.694476128,9.94263979,1
204,0.406510838,1.388330579,-1.725520253,9.661312103,9.911903626,1
205,0.408510838,1.379203916,-1.729130745,9.610804558,9.862031273,1
206,0.410510838,1.371446609,-1.728623152,9.573560715,9.824564548,1
207,0.412510838,1.347035289,-1.732846498,9.526135445,9.775710591,1
208,0.414510838,1.327824235,-1.719774246,9.494657516,9.740085319,1
209,0.416510838,1.292945504,-1.711969137,9.44260788,9.683253068,1
210,0.418510838,1.241163731,-1.707401037,9.376708984,9.611367077,1
211,0.420510838,1.191996455,-1.691695094,9.319314957,9.5463249,1
212,0.422510838,1.139927387,-1.681237221,9.257842064,9.478060599,1
213,0.424510838,1.075331807,-1.66340518,9.195334435,9.406244237,1
214,0.426510838,1.018110394,-1.637155175,9.138275146,9.339427097,1
215,0.428510838,0.955047071,-1.629608631,9.108941078,9.302717171,1
216,0.43053115,0.8723512888,-1.617570519,9.030709267,9.215814723,1
217,0.432510838,0.8019139171,-1.608099103,8.959218025,9.137649385,1
218,0.434510838,0.6723971367,-1.598091364,8.888224602,9.055746821,1
219,0.436510838,0.5794734359,-1.600284457,8.828828812,8.991380205,1
220,0.438510838,0.4650305808,-1.613433361,8.766512871,8.925870745,1
221,0.440510838,0.3093978763,-1.644088745,8.708266258,8.867505629,1
222,0.442510838,0.1816911846,-1.675682664,8.669232368,8.831563505,1
223,0.444510838,0.07610688359,-1.710944414,8.641746521,8.809818726,1
224,0.446510838,-0.08341398835,-1.791150093,8.605029106,8.78986362,1
225,0.448510838,-0.1847366095,-1.852499127,8.563733101,8.763755203,1
226,0.450513963,-0.295818001,-1.972324252,8.491410255,8.722477823,1
227,0.452510838,-0.3646273613,-2.065640688,8.431564331,8.68856154,1
228,0.454510838,-0.4450725019,-2.161016226,8.350726128,8.637285888,1
229,0.456510838,-0.5488084555,-2.30153656,8.236886978,8.56998065,1
230,0.458510838,-0.6274723411,-2.395647764,8.158289909,8.525874969,1
231,0.460510838,-0.7129070759,-2.492268324,8.073162079,8.479126361,1
232,0.462510838,-0.8486104012,-2.627818346,7.95625782,8.421852966,1
233,0.464510838,-0.948984921,-2.715072393,7.864099979,8.373545185,1
234,0.466510838,-1.055009723,-2.806243896,7.803229809,8.359332854,1
235,0.468510838,-1.195932508,-2.91046834,7.728090286,8.344127276,1
236,0.470510838,-1.294678926,-3.000231743,7.682121754,8.348208111,1
237,0.472510838,-1.388541222,-3.078560352,7.653774261,8.365754061,1
238,0.474510838,-1.518287897,-3.179471254,7.596964836,8.374252821,1
239,0.476510838,-1.607763886,-3.246422529,7.56087923,8.383976305,1
240,0.478510838,-1.681122184,-3.299487591,7.507239819,8.370868524,1
241,0.480510838,-1.757305741,-3.357982874,7.419947147,8.331853823,1
242,0.482510838,-1.789780617,-3.396347523,7.357994556,8.299311721,1
243,0.484510838,-1.848860025,-3.438657761,7.293284416,8.272523688,1
244,0.486510838,-1.879601598,-3.451605797,7.2406497,8.238537056,1
245,0.488510838,-1.918349385,-3.458357334,7.202093601,8.21647443,1
246,0.490510838,-1.96705699,-3.444126129,7.141271591,8.168786809,1
247,0.492510838,-2.034698009,-3.409008026,7.108183384,8.141719888,1
248,0.494510838,-2.122670412,-3.360635519,7.069436073,8.11027294,1
249,0.496510838,-2.235696077,-3.30962944,7.030036926,8.085382067,1
250,0.498510838,-2.335658789,-3.276876688,6.989172935,8.064847248,1
251,0.500510838,-2.463671923,-3.245838404,6.920181751,8.030819495,1
252,0.502545213,-2.587375402,-3.217567682,6.853507996,8.001113992,1
253,0.504510838,-2.721249819,-3.212578058,6.793604851,7.992429244,1
254,0.506510838,-2.907116175,-3.209877491,6.714749336,7.990149974,1
255,0.508510838,-3.060823917,-3.207339525,6.684726238,8.02129882,1
256,0.510510838,-3.222432613,-3.19710207,6.683251381,8.079070653,1
257,0.512510838,-3.44912529,-3.178771973,6.664834976,8.149912992,1
258,0.514510838,-3.603809834,-3.141384363,6.658734322,8.197224152,1
259,0.516510838,-3.770139933,-3.099974155,6.647453308,8.246964918,1
260,0.518510838,-3.996525764,-3.022890329,6.609050274,8.29395139,1
261,0.520510838,-4.158632755,-2.966655254,6.591515064,8.339264994,1
262,0.522510838,-4.319972992,-2.912163258,6.57491827,8.388826601,1
263,0.524510838,-4.5338521,-2.831631899,6.58646822,8.482659824,1
264,0.526510838,-4.707757473,-2.755208969,6.606828213,8.567633041,1
265,0.528510838,-4.922009468,-2.641293049,6.648104668,8.683311687,1
266,0.530510838,-5.088013649,-2.545927048,6.697223663,8.7876295,1
267,0.532510838,-5.249019146,-2.45003438,6.748957634,8.894003576,1
268,0.534510838,-5.453780651,-2.330985069,6.845846176,9.057749425,1
269,0.536510838,-5.594052315,-2.227000237,6.893203735,9.152552053,1
270,0.538510838,-5.734141827,-2.118399143,6.947916031,9.254271154,1
271,0.540510838,-5.895089626,-1.969307542,6.992802143,9.355722084,1
272,0.542510838,-5.981127262,-1.843516111,7.030563354,9.412824022,1
273,0.544510838,-6.032152653,-1.714660287,7.071619511,9.451705033,1
274,0.546510838,-6.044957161,-1.546548963,7.109016895,9.458934506,1
275,0.548510838,-6.038550377,-1.428648949,7.142439842,9.461478498,1
276,0.550510838,-5.981405258,-1.262069941,7.156058311,9.41165235,1
277,0.552510838,-5.927832603,-1.145864964,7.160799026,9.366389304,1
278,0.554510838,-5.865765572,-1.021241903,7.183821201,9.330456999,1
279,0.556510838,-5.786153316,-0.8785188198,7.196472168,9.275806013,1
280,0.558510838,-5.728079796,-0.7840148807,7.191061497,9.226968242,1
281,0.560510838,-5.683403969,-0.7069694996,7.168057919,9.175071709,1
282,0.562510838,-5.615485191,-0.6233543754,7.098395824,9.072456552,1
283,0.564510838,-5.57105875,-0.5575903654,7.015202522,8.975559539,1
284,0.566510838,-5.544817924,-0.5323076844,6.934987068,8.895077455,1
285,0.568510838,-5.511146069,-0.5209590793,6.806609631,8.773486423,1
286,0.570510838,-5.496474266,-0.5221754313,6.711272717,8.690516556,1
287,0.572510838,-5.500534534,-0.5293292999,6.553284168,8.572141101,1
288,0.574510838,-5.528480053,-0.5370194912,6.445755959,8.508833734,1
289,0.576510838,-5.576411724,-0.5556367636,6.32113266,8.44759244,1
290,0.578510838,-5.652337074,-0.6005806923,6.150397778,8.374783841,1
