"Time (s)","Acceleration x (m/s^2)","Acceleration y (m/s^2)","Acceleration z (m/s^2)","Absolute acceleration (m/s^2)"
4.449552300E-2,-1.210768223E0,5.120640278E0,7.817351341E0,9.423263688E0
4.691052300E-2,-1.203589797E0,5.096712112E0,7.802994728E0,9.397437389E0
4.932552300E-2,-1.186840057E0,5.077569485E0,7.764709473E0,9.353128588E0
5.174047100E-2,-1.160519004E0,5.060820103E0,7.716853142E0,9.300996016E0
5.415547100E-2,-1.127019525E0,5.048855782E0,7.652246952E0,9.236774390E0
5.657041900E-2,-1.091127157E0,5.046463013E0,7.578069210E0,9.169759013E0
5.898541900E-2,-1.052842021E0,5.044070244E0,7.494320393E0,9.094831449E0
6.140041900E-2,-1.021735311E0,5.051248550E0,7.412964344E0,9.028349535E0
6.381536700E-2,-9.858429432E-1,5.058426857E0,7.334001541E0,8.963657021E0
6.623036700E-2,-9.523434043E-1,5.067998409E0,7.262216568E0,8.906815105E0
6.864531500E-2,-9.140582681E-1,5.075176716E0,7.195217609E0,8.852348709E0
7.106031500E-2,-8.685946465E-1,5.075176716E0,7.133004189E0,8.797250941E0
7.347531500E-2,-8.231309652E-1,5.067998409E0,7.075576782E0,8.742193047E0
7.589026300E-2,-7.728816867E-1,5.058426857E0,7.030112743E0,8.695258107E0
7.830526300E-2,-7.298108935E-1,5.044070244E0,6.996613503E0,8.656088555E0
8.072021100E-2,-6.963114142E-1,5.024927616E0,6.979863644E0,8.628629301E0
8.313521100E-2,-6.771687865E-1,5.003392220E0,6.975078106E0,8.610702982E0
8.555021100E-2,-6.771687865E-1,4.977071285E0,6.987041950E0,8.605146795E0
8.796515900E-2,-6.891329288E-1,4.950749874E0,7.013363361E0,8.612322227E0
9.038015900E-2,-7.034898400E-1,4.917250633E0,7.051648140E0,8.625543069E0
9.279515900E-2,-7.130611539E-1,4.876572609E0,7.097112179E0,8.640510280E0
9.521010700E-2,-7.082754970E-1,4.828716278E0,7.149754047E0,8.656623938E0
9.762510700E-2,-6.843472719E-1,4.773681164E0,7.204789162E0,8.669795263E0
1.000400550E-1,-6.436693072E-1,4.716253281E0,7.255038261E0,8.677150186E0
1.024550550E-1,-6.005984545E-1,4.649254322E0,7.305287361E0,8.680063806E0
1.048700550E-1,-5.527420044E-1,4.584648132E0,7.357929707E0,8.686981742E0
1.072850020E-1,-5.024927258E-1,4.522434711E0,7.415357590E0,8.700140392E0
1.097000020E-1,-4.474578202E-1,4.465006828E0,7.467999458E0,8.712492203E0
1.121149500E-1,-3.780659735E-1,4.409972191E0,7.511070251E0,8.718197344E0
1.145299500E-1,-2.727817893E-1,4.347758770E0,7.556533813E0,8.722305859E0
1.169449500E-1,-1.244267747E-1,4.278367043E0,7.616354465E0,8.736633329E0
1.193598980E-1,1.435693540E-2,4.220939159E0,7.676175117E0,8.760148283E0
1.217748980E-1,1.124626622E-1,4.177868366E0,7.683353424E0,8.746493685E0
1.241898460E-1,1.890329868E-1,4.153940201E0,7.587640762E0,8.652354882E0
1.266048460E-1,2.536391914E-1,4.165904045E0,7.441678524E0,8.532154980E0
1.290198460E-1,2.847459018E-1,4.199403763E0,7.345965385E0,8.466361653E0
1.314347940E-1,2.679961324E-1,4.230510235E0,7.362715244E0,8.495799818E0
1.338497940E-1,2.297109663E-1,4.235296249E0,7.487142086E0,8.605103025E0
1.362647420E-1,1.866401732E-1,4.216153622E0,7.673782349E0,8.757723531E0
1.386797420E-1,1.698904037E-1,4.165904045E0,7.853243828E0,8.891403595E0
1.410947420E-1,2.464607358E-1,4.063013077E0,8.008777618E0,8.983837548E0
1.435096900E-1,3.732803464E-1,3.943371773E0,8.133204460E0,9.046465274E0
1.459246900E-1,5.192425251E-1,3.818944931E0,8.207381248E0,9.067252072E0
1.483396900E-1,7.202396393E-1,3.680161238E0,8.252845764E0,9.064865971E0
1.507546380E-1,9.643075466E-1,3.543770313E0,8.279166222E0,9.057195504E0
1.531696380E-1,1.227517962E0,3.421736479E0,8.274380684E0,9.037724082E0
1.555846380E-1,1.524227977E0,3.306880951E0,8.236095428E0,9.005109686E0
1.579995860E-1,1.847259045E0,3.206382275E0,8.171489716E0,8.970312004E0
1.604145860E-1,2.187039852E0,3.122633457E0,8.092526436E0,8.945555720E0
1.628295340E-1,2.529213428E0,3.060420275E0,7.999206066E0,8.930307414E0
1.652445340E-1,2.866601467E0,3.017349243E0,7.910671711E0,8.938709490E0
1.676595340E-1,3.201596737E0,2.993421078E0,7.826922894E0,8.970591586E0
1.700744820E-1,3.543770313E0,2.979064226E0,7.747959614E0,9.025741514E0
1.724894820E-1,3.931407690E0,2.959921598E0,7.683353424E0,9.124199808E0
1.749044300E-1,4.417150497E0,2.912065268E0,7.657032490E0,9.307066626E0
1.773194300E-1,4.931607246E0,2.854637384E0,7.657032490E0,9.544624203E0
1.797344300E-1,5.388636589E0,2.823530674E0,7.640282631E0,9.766455265E0
1.821493770E-1,5.730810165E0,2.849851847E0,7.597211838E0,9.933854660E0
1.845643770E-1,6.010770321E0,2.895315409E0,7.539783955E0,1.006779784E1
1.869793770E-1,6.254838467E0,2.919243574E0,7.458428383E0,1.016233936E1
1.893943250E-1,6.463014126E0,2.907279491E0,7.362715244E0,1.021921726E1
1.918093250E-1,6.616154671E0,2.861815929E0,7.255038261E0,1.022736883E1
1.942242730E-1,6.704689026E0,2.797209740E0,7.137789726E0,1.018456084E1
1.966392730E-1,6.726224422E0,2.730210543E0,7.020541668E0,1.009872021E1
1.990542730E-1,6.735795975E0,2.660818815E0,6.915257454E0,1.001357528E1
2.014692210E-1,6.721438885E0,2.596212626E0,6.819544315E0,9.920899422E0
2.038842210E-1,6.664011002E0,2.533999205E0,6.731009960E0,9.804931906E0
2.062992210E-1,6.582654953E0,2.474178553E0,6.652047157E0,9.680012248E0
2.087141690E-1,6.510870457E0,2.404786825E0,6.599404812E0,9.577399316E0
2.111291690E-1,6.448657036E0,2.333002090E0,6.551548481E0,9.484242923E0
2.135441170E-1,6.386443615E0,2.263610125E0,6.482156754E0,9.377043725E0
2.159591170E-1,6.338587284E0,2.196611166E0,6.372086525E0,9.252365971E0
2.183741170E-1,6.321837425E0,2.134397745E0,6.240481377E0,9.135912104E0
2.207890650E-1,6.300302029E0,2.079362869E0,6.092126369E0,9.007305884E0
2.232040650E-1,6.242874146E0,2.041077614E0,5.927021503E0,8.846980238E0
2.256190650E-1,6.154339790E0,2.017149448E0,5.771488190E0,8.674956258E0
2.280340130E-1,6.017949104E0,2.021935225E0,5.639883041E0,8.491891085E0
2.304490130E-1,5.819344521E0,2.038684845E0,5.525027275E0,8.279307516E0
2.328640130E-1,5.539384365E0,2.038684845E0,5.429314613E0,8.019879813E0
2.352789610E-1,5.178068161E0,2.014756680E0,5.321637630E0,7.693598731E0
2.376939610E-1,4.752145767E0,1.981257200E0,5.178068161E0,7.302099655E0
2.401089090E-1,4.254438877E0,1.969292998E0,4.989035130E0,6.846081843E0
2.425239090E-1,3.680161238E0,2.000399828E0,4.742574692E0,6.327495627E0
2.449389090E-1,3.050848961E0,2.079362869E0,4.450650215E0,5.782708419E0
2.473538570E-1,2.478964329E0,2.191825628E0,4.192225456E0,5.340797506E0
2.497688570E-1,2.062613010E0,2.316252232E0,4.027120590E0,5.083020468E0
2.521838050E-1,1.859223247E0,2.426322222E0,3.967299938E0,5.008315026E0
2.545988050E-1,1.864008784E0,2.500499725E0,3.998406649E0,5.070925295E0
2.570138050E-1,2.038684845E0,2.533999205E0,4.084548473E0,5.221199488E0
2.594287520E-1,2.325823545E0,2.522035122E0,4.189832687E0,5.415239078E0
2.618437520E-1,2.675175667E0,2.486142635E0,4.290330887E0,5.634217707E0
2.642587520E-1,3.043670416E0,2.438286304E0,4.371686935E0,5.858397081E0
2.666737000E-1,3.400201082E0,2.388036966E0,4.436293125E0,6.078222161E0
2.690887000E-1,3.725624800E0,2.342573404E0,4.493721008E0,6.289790044E0
2.715036480E-1,4.005585194E0,2.313859463E0,4.555934429E0,6.492703357E0
2.739186480E-1,4.237689018E0,2.299502611E0,4.630111694E0,6.684583366E0
2.763336480E-1,4.431507587E0,2.304288149E0,4.728217602E0,6.877793619E0
2.787485960E-1,4.601397991E0,2.330609322E0,4.845465660E0,7.076944309E0
2.811635960E-1,4.749752998E0,2.371287346E0,4.981856823E0,7.280251000E0
2.835785960E-1,4.874179840E0,2.411965132E0,5.130211830E0,7.476247610E0
2.859935440E-1,4.967499733E0,2.457428932E0,5.285745144E0,7.658597279E0
2.884085440E-1,5.039284706E0,2.500499725E0,5.446064472E0,7.829847218E0
2.908235440E-1,5.087141037E0,2.531606436E0,5.606383324E0,7.982453824E0
2.932384920E-1,5.111069202E0,2.548356056E0,5.761917114E0,8.112757596E0
2.956534920E-1,5.115854740E0,2.553141832E0,5.905486107E0,8.219809554E0
2.980684400E-1,5.106283665E0,2.541177750E0,6.039484501E0,8.307050635E0
3.004834400E-1,5.094319344E0,2.507678032E0,6.173482418E0,8.387635176E0
3.028984400E-1,5.089533806E0,2.464607239E0,6.307480335E0,8.471242611E0
3.053133880E-1,5.091926575E0,2.414358139E0,6.443871498E0,8.560392593E0
3.077283880E-1,5.096712112E0,2.349751949E0,6.580262184E0,8.648563984E0
3.101433880E-1,5.099104881E0,2.275574446E0,6.719046116E0,8.736400309E0
3.125583360E-1,5.094319344E0,2.199003935E0,6.855436802E0,8.819564707E0
3.149733360E-1,5.084748268E0,2.122433662E0,6.996613503E0,8.905727938E0
3.173883360E-1,5.070391178E0,2.050648928E0,7.130611420E0,8.986637132E0
3.198032840E-1,5.046463013E0,1.983649969E0,7.250252724E0,9.053608159E0
3.222182840E-1,5.017749310E0,1.921436548E0,7.355536938E0,9.108987330E0
3.246332320E-1,4.984249592E0,1.864008784E0,7.444071293E0,9.150490159E0
3.270482320E-1,4.948357105E0,1.811366796E0,7.518248558E0,9.181032028E0
3.294632320E-1,4.914857864E0,1.756331801E0,7.582854748E0,9.205444875E0
3.318781800E-1,4.886143684E0,1.698904037E0,7.645068169E0,9.230803992E0
3.342931800E-1,4.864608288E0,1.631905079E0,7.702496052E0,9.255051237E0
3.367081800E-1,4.859822750E0,1.557727575E0,7.759923935E0,9.287669882E0
3.391231270E-1,4.867001057E0,1.476371527E0,7.819744587E0,9.328224782E0
3.415381270E-1,4.888536453E0,1.390229940E0,7.891529083E0,9.386520080E0
3.439530750E-1,4.919643402E0,1.296909928E0,7.975277901E0,9.459911424E0
3.463680750E-1,4.965106964E0,1.198804140E0,8.070990562E0,9.551455763E0
3.487830750E-1,5.022534847E0,1.095912814E0,8.181060791E0,9.662123827E0
3.511980230E-1,5.087141037E0,9.906286001E-1,8.298309326E0,9.783776706E0
3.536130230E-1,5.158925533E0,8.805587292E-1,8.425128937E0,9.918300960E0
3.560280230E-1,5.197210789E0,7.226324677E-1,8.559126854E0,1.003951444E1
3.584429710E-1,5.230710506E0,5.359922647E-1,8.702695847E0,1.016781860E1
3.608579710E-1,5.309673309E0,3.517449200E-1,8.858229637E0,1.033366283E1
3.632729710E-1,5.441278458E0,1.794617027E-1,9.011369705E0,1.052827154E1
3.656879190E-1,5.620740414E0,1.674975827E-2,9.152546883E0,1.074067585E1
3.681029190E-1,5.833701611E0,-1.387837082E-1,9.284152031E0,1.096571084E1
3.705178670E-1,6.058627129E0,-2.967100143E-1,9.427721024E0,1.121057194E1
3.729328670E-1,6.257231236E0,-4.953143001E-1,9.616754532E0,1.148391252E1
3.753478670E-1,6.467799664E0,-6.819544435E-1,9.774680138E0,1.174060757E1
3.777628150E-1,6.687939167E0,-8.518448472E-1,9.879964828E0,1.196109840E1
3.801778150E-1,6.932007313E0,-1.012163997E0,9.970891953E0,1.218588887E1
3.825928150E-1,7.207181931E0,-1.189232826E0,1.008096218E1,1.244923872E1
3.850077630E-1,7.429714203E0,-1.385444283E0,1.015992451E1,1.266270804E1
3.874227630E-1,7.585247993E0,-1.591227055E0,1.016231823E1,1.278048131E1
3.898377630E-1,7.647460938E0,-1.801795483E0,1.007617569E1,1.277730184E1
3.922527110E-1,7.616354465E0,-2.014756680E0,9.908679008E0,1.265898967E1
3.946677110E-1,7.506284714E0,-2.227717876E0,9.678967476E0,1.244947583E1
3.970826590E-1,7.331608772E0,-2.450250387E0,9.406186104E0,1.217507910E1
3.994976590E-1,7.116254330E0,-2.675175667E0,9.097511292E0,1.185589947E1
4.019126590E-1,6.869793892E0,-2.902493954E0,8.764909744E0,1.150835271E1
4.043276070E-1,6.587440968E0,-3.132204771E0,8.422736168E0,1.114215283E1
4.067426070E-1,6.285944939E0,-3.364308596E0,8.094919205E0,1.078700111E1
4.091576070E-1,5.972485542E0,-3.594019651E0,7.793423176E0,1.045585987E1
4.115725550E-1,5.666203976E0,-3.821337700E0,7.534998417E0,1.017274252E1
4.139875550E-1,5.367101192E0,-4.039084435E0,7.324429989E0,9.938171509E0
4.164025550E-1,5.070391178E0,-4.240081787E0,7.161718369E0,9.745633394E0
4.188175020E-1,4.773681164E0,-4.424329281E0,7.046862602E0,9.592757371E0
4.212325020E-1,4.510470867E0,-4.582255363E0,6.982256413E0,9.491749906E0
4.236474500E-1,4.307080746E0,-4.694717884E0,6.982256413E0,9.452154525E0
4.260624500E-1,4.173082829E0,-4.754538536E0,7.061219692E0,9.480563302E0
4.284774500E-1,4.103690624E0,-4.756931305E0,7.211967468E0,9.564577719E0
4.308923980E-1,4.082155228E0,-4.709074974E0,7.420143127E0,9.690093005E0
4.333073980E-1,4.091726780E0,-4.622933388E0,7.659425259E0,9.837709919E0
4.357223980E-1,4.127619267E0,-4.510470867E0,7.905886173E0,9.994229557E0
4.381373460E-1,4.180261135E0,-4.395615101E0,8.154739380E0,1.016345363E1
4.405523460E-1,4.235296249E0,-4.283152580E0,8.398807526E0,1.033552602E1
4.429673460E-1,4.307080746E0,-4.199403763E0,8.645268440E0,1.053216991E1
4.453822940E-1,4.400400639E0,-4.146761417E0,8.906085968E0,1.076464227E1
4.477972940E-1,4.522434711E0,-4.113262177E0,9.188439369E0,1.103624753E1
4.502122940E-1,4.680361271E0,-4.091726780E0,9.489934921E0,1.134490522E1
4.526272420E-1,4.890929699E0,-4.072584152E0,9.803394318E0,1.168818528E1
4.550422420E-1,5.149354458E0,-4.039084435E0,1.011924744E1,1.205110879E1
4.574571900E-1,5.446064472E0,-3.991228104E0,1.041117096E1,1.240894841E1
4.598721900E-1,5.778666496E0,-3.921836376E0,1.065763187E1,1.274201335E1
4.622871900E-1,6.139982700E0,-3.823730469E0,1.085384369E1,1.304324442E1
4.647021900E-1,6.522834301E0,-3.689732552E0,1.099262714E1,1.330411008E1
4.671171380E-1,6.915257454E0,-3.529413462E0,1.109073257E1,1.353816435E1
4.695321380E-1,7.302894592E0,-3.364308596E0,1.117687416E1,1.376856411E1
4.719470860E-1,7.661818027E0,-3.196810961E0,1.127258778E1,1.399979610E1
4.743620860E-1,7.989634991E0,-3.036491871E0,1.138026428E1,1.423253194E1
4.767770860E-1,8.291130066E0,-2.883351326E0,1.147837067E1,1.445024380E1
4.791920340E-1,8.585447311E0,-2.734996319E0,1.155254745E1,1.465098847E1
4.816070340E-1,8.896514893E0,-2.579462767E0,1.160279655E1,1.484676710E1
4.840220340E-1,9.260223389E0,-2.411965132E0,1.163390350E1,1.506376526E1
4.864369820E-1,9.693324089E0,-2.232503414E0,1.164826107E1,1.531752556E1
4.888519820E-1,1.018624592E1,-2.033899307E0,1.165304661E1,1.561056846E1
4.912669820E-1,1.072463131E1,-1.813759565E0,1.164108181E1,1.593179921E1
4.936819300E-1,1.129172993E1,-1.567298889E0,1.160279655E1,1.626605295E1
4.960969300E-1,1.187318611E1,-1.287338614E0,1.152144146E1,1.659437864E1
4.985118770E-1,1.244985580E1,-9.714859724E-1,1.138744259E1,1.690019359E1
5.009268770E-1,1.300020504E1,-6.173482537E-1,1.119601727E1,1.716791346E1
5.033418770E-1,1.351466274E1,-2.273181528E-1,1.094237804E1,1.739061298E1
5.057568250E-1,1.397647667E1,1.914258152E-1,1.063609695E1,1.756431332E1
5.081718250E-1,1.438564968E1,6.340979934E-1,1.027717304E1,1.769093787E1
5.105868250E-1,1.475414467E1,1.083948612E0,9.851250648E0,1.777376912E1
5.130017730E-1,1.508674717E1,1.531406522E0,9.343972206E0,1.781193315E1
5.154167730E-1,1.538824272E1,1.974078655E0,8.750552177E0,1.781199495E1
5.178317730E-1,1.565863132E1,2.407179594E0,8.066205025E0,1.777782079E1
5.202467210E-1,1.590030670E1,2.821137905E0,7.302894592E0,1.772317245E1
5.226617210E-1,1.611805344E1,3.220739365E0,6.470192432E0,1.766431993E1
5.250767210E-1,1.630947876E1,3.601198196E0,5.587240696E0,1.761206928E1
5.274916690E-1,1.646740532E1,3.969692707E0,4.673182487E0,1.757192456E1
5.299066690E-1,1.659661865E1,4.319045067E0,3.747160196E0,1.755400554E1
5.323216690E-1,1.669472313E1,4.644468784E0,2.835494757E0,1.755918282E1
5.347366170E-1,1.676172256E1,4.943571568E0,1.969292998E0,1.758614108E1
5.371516170E-1,1.680479431E1,5.218746185E0,1.177268744E0,1.763582675E1
5.395666170E-1,1.681915092E1,5.477170944E0,4.881358147E-1,1.769523992E1
5.419815650E-1,1.680000687E1,5.716453075E0,-7.417750359E-2,1.774608601E1
5.443965650E-1,1.676411629E1,5.929414749E0,-4.737788737E-1,1.778814270E1
5.468115130E-1,1.676411629E1,6.118447304E0,-6.843472719E-1,1.785887240E1
5.492265130E-1,1.682872200E1,6.297909260E0,-6.867401004E-1,1.798168950E1
5.516415130E-1,1.682393646E1,6.441478729E0,-5.048855543E-1,1.802199755E1
5.540565130E-1,1.665404510E1,6.534798622E0,-1.962114573E-1,1.789131941E1
5.564714610E-1,1.637169266E1,6.608976364E0,1.292124242E-1,1.765580881E1
5.588864610E-1,1.607976723E1,6.685546398E0,4.498506486E-1,1.742004048E1
5.613014090E-1,1.585005760E1,6.757331371E0,7.537391186E-1,1.724685409E1
5.637164090E-1,1.567777443E1,6.824330330E0,1.048056364E0,1.713074773E1
5.661314090E-1,1.553899002E1,6.876972198E0,1.351944804E0,1.704642814E1
5.685463570E-1,1.542892075E1,6.908079147E0,1.684547186E0,1.698855062E1
5.709613570E-1,1.535713577E1,6.917650223E0,2.024327993E0,1.696447487E1
5.733763570E-1,1.531645775E1,6.917650223E0,2.344966173E0,1.696899022E1
5.757913050E-1,1.533320713E1,6.934400082E0,2.545963287E0,1.701984355E1
5.782063050E-1,1.542892075E1,6.984649181E0,2.538784742E0,1.712548824E1
5.806213050E-1,1.555813313E1,7.080362320E0,2.263610125E0,1.724270767E1
5.830362520E-1,1.562273884E1,7.216753006E0,1.892722726E0,1.731282450E1
5.854512520E-1,1.557248974E1,7.374679565E0,1.538584948E0,1.729900514E1
5.878662520E-1,1.542892075E1,7.532605648E0,1.258624673E0,1.721557084E1
5.902812000E-1,1.523031616E1,7.668996811E0,1.045663476E0,1.708418727E1
5.926962000E-1,1.500778389E1,7.776673794E0,8.997012973E-1,1.692689266E1
5.951112000E-1,1.479482269E1,7.841279984E0,8.111668825E-1,1.676396260E1
5.975261480E-1,1.460339642E1,7.855636597E0,7.680960894E-1,1.660000557E1
5.999411480E-1,1.442154217E1,7.826922894E0,7.537391186E-1,1.642588576E1
6.023561480E-1,1.423490238E1,7.757531166E0,7.633104324E-1,1.622942939E1
6.047710960E-1,1.403869057E1,7.649854183E0,8.111668825E-1,1.600821956E1
6.071860960E-1,1.383290768E1,7.518248558E0,9.020941257E-1,1.576981832E1
6.096010960E-1,1.361516094E1,7.369893551E0,1.031306505E0,1.551617000E1
6.120160440E-1,1.338305664E1,7.204789162E0,1.186840057E0,1.524545117E1
6.144310440E-1,1.314616776E1,7.015756130E0,1.356730461E0,1.496272964E1
6.168460440E-1,1.292363548E1,6.812366009E0,1.529013634E0,1.468899477E1
6.192609920E-1,1.271306705E1,6.597012043E0,1.701296926E0,1.442348963E1
6.216759920E-1,1.252164078E1,6.367300987E0,1.887937069E0,1.417386031E1
6.240909400E-1,1.235414314E1,6.128018856E0,2.086541414E0,1.394744145E1
6.265059400E-1,1.220818138E1,5.879165173E0,2.289931297E0,1.374220001E1
6.289209400E-1,1.208614731E1,5.627918720E0,2.510071039E0,1.356646168E1
6.313358880E-1,1.196889877E1,5.383851051E0,2.739781857E0,1.340696814E1
6.337508880E-1,1.187079334E1,5.151747227E0,2.976671457E0,1.327843391E1
6.361658880E-1,1.177508068E1,4.924428940E0,3.213560820E0,1.316166777E1
6.385808360E-1,1.166501045E1,4.709074974E0,3.412165165E0,1.303421371E1
6.409958360E-1,1.153579807E1,4.505684853E0,3.567698479E0,1.288814593E1
6.434108360E-1,1.137787151E1,4.316651821E0,3.672982693E0,1.271142183E1
6.458257840E-1,1.120798111E1,4.132404804E0,3.766302824E0,1.252520048E1
6.482407840E-1,1.106201935E1,3.938585997E0,3.888336897E0,1.236931265E1
6.506557840E-1,1.092562866E1,3.739981890E0,4.024727821E0,1.222927881E1
6.530707320E-1,1.076770210E1,3.546163082E0,4.134797573E0,1.206711366E1
6.554857320E-1,1.058584690E1,3.352344513E0,4.197010994E0,1.187068952E1
6.579007320E-1,1.044945621E1,3.153740168E0,4.295116425E0,1.172967337E1
6.603156800E-1,1.034177971E1,2.945564747E0,4.479363918E0,1.164875360E1
6.627306800E-1,1.021017456E1,2.737389088E0,4.697110653E0,1.156735977E1
6.651456800E-1,9.985248566E0,2.543570518E0,4.859822750E0,1.139266506E1
6.675606270E-1,9.676574707E0,2.366501570E0,4.843072891E0,1.107663228E1
6.699756270E-1,9.327222824E0,2.208575249E0,4.644468784E0,1.065110232E1
6.723906270E-1,8.968298912E0,2.072184324E0,4.299902439E0,1.015940423E1
6.748055750E-1,8.609375954E0,1.954936147E0,3.847658873E0,9.630555978E0
6.772205750E-1,8.303094864E0,1.847259045E0,3.369094372E0,9.149018919E0
6.796355750E-1,8.068597794E0,1.737189293E0,2.947957516E0,8.764162853E0
6.820505230E-1,7.913064480E0,1.622333765E0,2.641676188E0,8.498647503E0
6.844655230E-1,7.814958572E0,1.502692580E0,2.469393015E0,8.332440479E0
6.868805230E-1,7.757531166E0,1.385444283E0,2.404786825E0,8.239037889E0
6.892954710E-1,7.740781307E0,1.277767301E0,2.395215511E0,8.203014194E0
6.917104710E-1,7.704888821E0,1.134197950E0,2.376072884E0,8.142323936E0
6.941254710E-1,7.635497093E0,9.284151793E-1,2.280359983E0,8.022643720E0
6.965404190E-1,7.635497093E0,7.824530005E-1,2.105684042E0,7.959079962E0
6.989554190E-1,7.582854748E0,6.699903607E-1,1.873580098E0,7.839571136E0
7.013704190E-1,7.599604607E0,5.742774606E-1,1.773081541E0,7.824806894E0
7.037853670E-1,7.695317745E0,5.120640397E-1,1.907079697E0,7.944625715E0
7.062003670E-1,7.829315662E0,5.000999570E-1,2.141576290E0,8.132320254E0
7.086153670E-1,8.059026718E0,5.431707501E-1,2.277967215E0,8.392382304E0
7.110303150E-1,8.327022552E0,6.269195080E-1,2.306680918E0,8.663319775E0
