Time (s),Acceleration x (m/s^2),Acceleration y (m/s^2),Acceleration z (m/s^2),Absolute acceleration (m/s^2),Activity
49.62766246,0.7993377686,-8.556057587,-0.5276527405,8.609499388,
49.63758746,1.096918945,-8.949589233,-0.5815406799,9.035295689,
49.64751246,1.382974091,-9.358089752,-0.7105723572,9.486378351,
49.65743746,1.642684021,-9.640103302,-0.8794212341,9.818522505,
49.66736246,1.786834259,-9.773625641,-0.9975256348,9.985569199,
49.67728746,1.721569977,-9.780062256,-1.038690033,9.984603042,
49.68721246,1.343605957,-9.752519531,-0.9710307312,9.892411984,
49.69713746,0.8544232178,-9.677675171,-0.7129673767,9.741445387,
49.70706246,0.4712200928,-9.496551819,-0.386945343,9.516105901,
49.71698746,0.3974235535,-9.041797485,-0.15328125,9.051825362,
49.72691346,0.669407959,-8.385711823,-0.009729766846,8.412393503,
49.73683846,0.8295748901,-7.922275543,0.0975970459,7.966189143,
49.74676346,0.8244854736,-7.585326233,0.2067201233,7.632803126,
49.75668846,0.7479945374,-7.288044434,0.3421884155,7.334315265,
49.76661346,0.5671705627,-7.026238861,0.4746629333,7.065056255,
49.77653846,0.2306703186,-6.853647766,0.5372328186,6.878540223,
49.78646346,-0.2357597351,-6.867568817,0.5969586182,6.897495466,
49.79638846,-0.6894662476,-6.965165863,0.6466552734,7.029015738,
49.80631346,-1.189875641,-7.19838089,0.6379733276,7.323899333,
49.81623846,-1.726509705,-7.461234283,0.6035449219,7.682129865,
49.82616346,-2.260898438,-7.624544678,0.4408332825,7.964902841,
49.83608862,-2.696492615,-7.654931488,0.3668870544,8.124263328,
49.84601362,-3.061583405,-7.687713318,0.4299060059,8.286075559,
49.85593862,-3.34060318,-7.677983551,0.68332901,8.401071334,
49.86586362,-3.576213226,-7.689060516,1.086889801,8.549402441,
49.87578862,-3.819906464,-7.831564178,1.348695374,8.817259329,
49.88571363,-4.046235809,-8.141120453,1.55032608,9.222438799,
49.89563862,-4.250860291,-8.535699921,1.658700714,9.678805422,
49.90556462,-4.428391113,-8.970096588,1.72007309,10.15046462,
49.91548962,-4.522245941,-9.339827728,1.723366241,10.51917685,
49.92541463,-4.540358276,-9.571994934,1.752705231,10.73824548,
49.93533962,-4.367467804,-9.666897583,1.816173248,10.76207086,
49.94526462,-4.201912079,-9.756860504,2.028731232,10.81518111,
49.95518962,-4.095633087,-10.06956024,2.464774475,11.14654059,
49.96511462,-4.013304291,-10.63643143,2.626288605,11.66780513,
49.97503962,-3.877835999,-11.54489227,2.305505676,12.39505974,
49.98496462,-3.293451233,-12.01072357,1.908680878,12.59949858,
49.99488962,-2.734812927,-11.80774567,1.74102951,12.24472308,
50.00481462,-2.485581207,-11.64982407,1.750160522,12.03991597,
50.01473962,-2.198777618,-11.50028503,1.74806488,11.83836601,
50.02466463,-1.94236084,-11.21393051,1.916015625,11.5410623,
50.03458962,-1.767674103,-11.02637054,2.137854309,11.36995779,
50.04451462,-1.336570587,-10.99104401,2.465073853,11.34310621,
50.05443962,-0.7578739929,-11.22006775,2.905907135,11.61501569,
50.06436462,-0.616867218,-12.1271814,3.139870605,12.54224227,
50.07429062,-0.8334667969,-13.21631653,2.457739105,13.46871081,
50.08421562,-0.9524693298,-13.86207367,1.314566345,13.95680368,
50.09414062,-1.119521942,-13.75729156,0.1447489929,13.80352683,
50.10406562,-1.340013428,-12.98564621,-0.6078858948,13.06874779,
50.11399062,-1.627715149,-12.04799606,-0.7300318909,12.17935188,
50.12391562,-1.933978271,-11.40358612,-0.6218069458,11.58312101,
50.13384062,-2.03831131,-10.80707657,-0.7860154724,11.02567174,
50.14376562,-1.972148895,-9.960736542,-1.161584473,10.22031909,
50.15369062,-1.987267456,-9.34431839,-1.453327789,9.663212705,
50.16361563,-2.118544464,-9.129664764,-1.639989624,9.514650562,
50.17354062,-2.207758942,-9.049132233,-1.604064331,9.451667371,
50.18346562,-2.244432678,-9.255552979,-1.269959106,9.608097372,
50.19339062,-2.239942017,-9.683812408,-1.291065216,10.02299418,
50.20331562,-2.361339569,-10.17913239,-1.452279968,10.54987098,
50.21324062,-2.473456421,-10.71726334,-1.933080139,11.16756549,
50.22316562,-2.430046692,-11.13564331,-2.735860748,11.7214595,
50.23309062,-2.360591125,-11.40732834,-3.468287659,12.1543634,
50.24301662,-2.180515594,-11.44175674,-3.784280548,12.24700882,
50.25294162,-2.001936951,-11.00780914,-3.553610229,11.73915497,
50.26286662,-2.026036835,-10.23616379,-2.751278687,10.79135806,
50.27279163,-1.969005432,-9.483379211,-2.284399567,9.951379052,
50.28271662,-1.733694763,-8.749455414,-1.513802032,9.047113582,
50.29264162,-1.45093277,-8.236023102,-0.8764274597,8.408650756,
50.30256662,-1.237177277,-7.922275543,-0.4492158508,8.030868712,
50.31249162,-0.9916877747,-7.68157608,-0.3878434753,7.755029225,
50.32241662,-0.8807684326,-7.570357361,-0.4584965515,7.635200239,
50.33234162,-0.8418493652,-7.510182495,-0.5792953491,7.579388799,
50.34226662,-0.7900570679,-7.481891327,-0.7411088562,7.559902799,
50.35219162,-0.7566764832,-7.619904327,-0.77927948,7.69693301,
50.36211662,-0.6978488159,-7.801177368,-0.6801855469,7.861807278,
50.37204162,-0.7147636414,-8.093369751,-0.3851490784,8.133994148,
50.38196662,-0.7920030212,-8.288264465,0.01901046753,8.326040958,
50.39189162,-0.9928852844,-8.355175323,0.2676434326,8.418218866,
50.40181663,-1.41231308,-8.413553925,0.1922003174,8.533431832,
50.41174263,-1.665287018,-8.270002441,-0.1324745178,8.437041586,
50.42166762,-1.777104492,-8.076454926,-0.4429289246,8.281510163,
50.43159262,-1.967358856,-7.958649902,-0.513432312,8.214269406,
50.44151762,-2.136058044,-7.956703949,-0.4093986511,8.248605273,
50.45144262,-2.245779877,-7.869585114,-0.08562194824,8.184206023,
50.46136762,-2.209854584,-7.901019745,0.005688171387,8.204242966,
50.47129262,-2.198927307,-8.148754578,-0.1478924561,8.441525611,
50.48121762,-2.196981354,-8.353977814,-0.01646575928,8.638052066,
50.49114262,-2.124232635,-8.394393768,0.2719844055,8.663266505,
50.50106762,-1.981429596,-8.371192017,0.4059558105,8.612068227,
50.51099263,-1.868564301,-8.434959412,0.3809577942,8.647843758,
50.52091762,-1.851948853,-8.71592514,0.3728746033,8.918301468,
50.53084262,-1.93068512,-9.203610992,0.4016148376,9.41250736,
50.54076762,-2.063159637,-9.939630432,0.3820056152,10.15868146,
50.55069262,-2.175725555,-10.62640228,0.2643502808,10.85007319,
50.56061762,-2.436483307,-11.17665802,0.2302212524,11.44146569,
50.57054262,-2.724334717,-11.51540359,0.2871029663,11.83676255,
50.58046762,-2.887046356,-11.71089706,0.2633024597,12.06438871,
50.59039362,-2.980003052,-11.80789536,0.1585203552,12.17916005,
50.60031862,-2.970123596,-11.83409088,0.07649093628,12.20136025,
50.61024362,-2.78016861,-11.68455185,0.1035845947,12.01119558,
50.62016862,-2.733465729,-11.53905441,0.240100708,11.86082881,
50.63009362,-2.71220993,-11.33637589,0.4822970581,11.66628096,
50.64001862,-2.944676514,-11.73679321,0.4351451111,12.10837669,
50.64994363,-3.113675079,-12.98938843,-0.05882766724,13.35749396,
50.65986862,-3.47861618,-14.61845078,-0.8743318176,15.052054,
50.66979362,-4.047882385,-15.85966965,-1.568887482,16.44311044,
50.67971862,-4.299060059,-15.57032135,-1.584155731,16.23041508,
50.68964362,-3.979923706,-13.48770218,-1.072819061,14.10350465,
50.69956862,-3.492986298,-11.53665939,-0.5713618469,12.06739067,
50.70949362,-2.971620483,-10.0462088,-0.2884501648,10.48046006,
50.71941862,-2.460283813,-8.660240936,-0.4083508301,9.012187299,
50.72934362,-1.999541931,-7.430548096,-0.5617817688,7.715362058,
50.73926862,-1.488804016,-6.452182617,-0.8987310791,6.68243335,
50.74919462,-1.030008087,-6.003116455,-1.039438477,6.178896032,
50.75911962,-0.672102356,-6.148015137,-1.011446686,6.266804297,
50.76904462,-0.4546046448,-6.837631073,-1.078207855,6.937030795,
50.77896962,-0.4058061218,-7.968379669,-1.254391479,8.076710416,
50.78889463,-0.4803511047,-9.196875,-1.557062073,9.340111843,
50.79881962,-0.6450086975,-10.11072464,-1.748214569,10.28100399,
50.80874462,-1.071920929,-10.57460999,-1.807491302,10.7813921,
50.81866962,-1.653012543,-10.67355423,-1.912872162,10.96887826,
50.82859462,-2.162852325,-10.62610291,-1.960622864,11.01980196,
50.83852346,-2.443368988,-10.54212753,-1.835034027,10.97605825,
50.84844846,-2.576741638,-10.3581601,-1.553768921,10.78634673,
50.85837346,-2.550995178,-10.04860382,-1.212328949,10.43799581,
50.86829846,-2.363734589,-9.686656494,-1.043779449,10.02536936,
50.87822346,-2.174827423,-9.389374695,-0.8647517395,9.67667438,
50.88814846,-1.939367065,-9.147926788,-0.6240522766,9.372040887,
50.89807346,-1.650318146,-8.918453979,-0.4086502075,9.079061976,
50.90799846,-1.509011993,-8.711584167,-0.2561174011,8.845021878,
50.91792446,-1.586550751,-8.566386108,-0.1330732727,8.713083423,
50.92784946,-1.854194183,-8.472381592,-0.1131646729,8.673643534,
50.93777446,-2.108964386,-8.406967621,-0.09520202637,8.66798124,
50.94769946,-2.351759491,-8.415948944,0.03592529297,8.738435784,
50.95762446,-2.63976059,-8.544531555,0.2430944824,8.946309317,
50.96754946,-2.911295929,-8.646469574,0.5219645691,9.138354726,
50.97747446,-3.184028778,-8.799152069,0.6779402161,9.382042386,
50.98739946,-3.393892365,-8.741222534,0.872535553,9.41747286,
50.99732446,-3.454516296,-8.605604553,0.9011260986,9.31676665,
51.00724946,-3.342698822,-8.49603241,0.7753875732,9.162828603,
51.01717446,-3.188669128,-8.368647308,0.7863148499,8.990003316,
51.02709946,-2.978655853,-8.333620148,0.7566764832,8.882239287,
51.03702446,-2.825075226,-8.465495911,0.4586462402,8.936219974,
51.04694946,-2.573897552,-8.466843109,0.3855981445,8.857825172,
51.05687446,-2.207459564,-8.342152405,0.4938230896,8.643393183,
51.06679946,-1.970801697,-8.276888123,0.7014413452,8.537151532,
51.07672546,-1.791324921,-8.274343414,0.7881111145,8.50263036,
51.08665046,-1.718725891,-8.336763611,0.8640032959,8.555825377,
51.09657546,-1.768422546,-8.319549408,1.050814819,8.570089407,
51.10650046,-1.965861969,-8.429720306,1.198557587,8.738497469,
51.11642546,-2.104773102,-8.575367432,1.154698792,8.905073032,
51.12635046,-2.256108398,-8.736731873,1.000968475,9.078680896,
51.13627546,-2.409988403,-8.966953125,0.750838623,9.315473745,
51.14620046,-2.528841248,-9.203012238,0.4620890808,9.555312586,
51.15612546,-2.656525726,-9.319470062,0.1490899658,9.691846005,
51.16605046,-2.76609787,-9.391470337,-0.03442840576,9.790413568,
51.17597546,-2.896626434,-9.43203598,-0.04400848389,9.866898407,
51.18590046,-3.015778656,-9.396410065,0.002694396973,9.868508006,
51.19582546,-3.168012085,-9.311087494,0.1269360352,9.836094939,
51.20575046,-3.354075165,-9.222471771,0.3016227722,9.81808444,
51.21567546,-3.603007507,-9.154812469,0.4834945679,9.850178752,
51.22560046,-3.892505493,-9.110354919,0.6418652344,9.927847539,
51.23552546,-4.095633087,-8.926237793,0.7092251587,9.846569547,
51.24545146,-3.997736664,-8.548124084,0.6903643799,9.461972668,
51.25537646,-3.600762177,-8.555009766,0.5081932068,9.295802315,
51.26530146,-3.240910492,-9.26468399,0.3453318787,9.821258797,
51.27522646,-3.03164566,-10.27747787,-0.1010398865,10.71576577,
51.28515146,-2.925815735,-11.39146133,-0.6744973755,11.78052358,
51.29507646,-2.772684174,-12.74359955,-1.040635986,13.08319648,
51.30500146,-2.726130981,-14.22297318,-1.386865997,14.5481323,
51.31492646,-2.638712769,-15.59651688,-2.027982788,15.9476286,
51.32485146,-2.373314667,-16.3738504,-2.702031097,16.76414542,
51.33477646,-1.721719666,-15.55161026,-2.904859314,15.91399095,
51.34470146,-0.841999054,-12.93100983,-2.353256378,13.17033762,
51.35462646,-0.7084767151,-10.35980667,-1.368304596,10.4737668,
51.36455146,-1.052611084,-8.736432495,-0.2463876343,8.80306479,
51.37447646,-1.68489624,-8.210875397,0.4911286926,8.396341913,
51.38440146,-2.492466888,-8.805888062,0.1978884888,9.153972667,
51.39432646,-3.147355042,-10.07195526,-0.9810598755,10.59776415,
51.40425246,-3.363056488,-11.0229277,-2.071691895,11.70926947,
51.41417746,-3.502266998,-11.29910339,-2.570454712,12.10548839,
51.42410246,-3.60151062,-11.19626724,-2.307301941,11.98544622,
51.43402746,-3.44942688,-10.99538498,-1.555415497,11.62825671,
51.44395246,-3.110830994,-10.69001999,-0.7280859375,11.15723559,
51.45387746,-2.82462616,-10.33600616,-0.2383044434,10.71766418,
51.46380246,-2.548001404,-9.716294861,-0.1805245972,10.0464564,
51.47372746,-2.373015289,-8.944799194,-0.3632945251,9.261350717,
51.48365246,-2.353855133,-8.285869446,-0.6497987366,8.638200325,
51.49357746,-2.355202332,-7.783065033,-0.9292675781,8.184535269,
51.50350246,-2.327809296,-7.428751831,-1.163530426,7.871394599,
51.51342746,-2.265089722,-7.246430969,-1.336420898,7.708917827,
51.52335246,-2.241289215,-7.32127533,-1.434916077,7.789957249,
51.53327746,-2.225272522,-7.584128723,-1.456471252,8.036924461,
51.54320246,-2.180814972,-7.871381378,-1.47787674,8.300525188,
51.55312746,-2.176024933,-8.111332397,-1.464404755,8.524862407,
51.56305346,-2.246079254,-8.251141663,-1.562001801,8.692874115,
51.57297846,-2.291285248,-8.437803497,-1.69193161,8.9055684,
51.58290346,-2.406096497,-8.528215485,-1.548380127,8.995401087,
51.59282846,-2.608924713,-8.620124359,-1.260079651,9.093999827,
51.60275346,-2.884950714,-8.585396576,-1.102158051,9.123964454,
51.61267846,-3.135529633,-8.523275757,-1.013841705,9.138142629,
51.62260346,-3.349434814,-8.455766144,-0.9880952454,9.148498613,
51.63252846,-3.522025909,-8.338859253,-1.141675873,9.123851377,
51.64245346,-3.623065796,-8.305478668,-1.402733002,9.169255234,
51.65237846,-3.641627197,-8.387508087,-1.614093475,9.285313043,
51.66230346,-3.573369141,-8.618477783,-1.757195892,9.493938262,
51.67222846,-3.491788788,-8.819958801,-1.719174957,9.640530314,
51.68215346,-3.448528748,-8.923543396,-1.586850128,9.697425978,
51.69207846,-3.485352173,-8.93477005,-1.466949463,9.702048049,
51.70200346,-3.508104858,-8.906179504,-1.440604248,9.679988309,
51.71192846,-3.481909332,-8.841364288,-1.529369659,9.624572023,
51.72185346,-3.444636841,-8.814420319,-1.565294952,9.592167472,
51.73177946,-3.398383026,-8.876690826,-1.533261566,9.627852214,
51.74170446,-3.331621857,-9.005423126,-1.537901917,9.724324767,
51.75162946,-3.236120453,-9.198371887,-1.613644409,9.883641497,
51.76155446,-3.180885315,-9.379195862,-1.613345032,10.03445208,
51.77147946,-3.152594147,-9.522597656,-1.494941254,10.14167468,
51.78140446,-3.138822784,-9.645941162,-1.343905334,10.23242253,
51.79132946,-3.094365234,-9.740694122,-1.153501282,10.28527021,
51.80125446,-3.121608582,-9.834249573,-0.9601034546,10.36236959,
51.81117946,-3.046464844,-9.815987549,-0.7879614258,10.30802808,
51.82110446,-2.985691223,-10.05189697,-0.6589297485,10.50662521,
51.83102946,-3.028352509,-10.86380859,-0.7354206848,11.30195114,
51.84095112,-3.246448975,-12.13406708,-1.076411591,12.60689005,
51.85087612,-3.490890656,-13.4448912,-1.494941254,13.97090786,
51.86080112,-3.822451172,-14.25291092,-1.641486511,14.84759511,
51.87072612,-4.081113281,-13.55416397,-1.30348938,14.21513036,
51.88065212,-3.990701294,-11.79247742,-0.7744894409,12.47349407,
51.89057712,-3.703748016,-10.13437546,-0.360151062,10.79597259,
51.90050212,-3.400628357,-9.029373322,-0.3246748352,9.653976877,
51.91042712,-3.029699707,-8.518785095,-0.6445596313,9.064449069,
51.92035212,-2.609224091,-8.424331512,-1.194066925,8.899618397,
51.93027712,-2.24892334,-8.78388382,-1.803449707,9.244820279,
51.94020212,-2.006277924,-9.246721344,-2.349364471,9.749180486,
51.95012712,-1.736987915,-9.643695831,-2.601440277,10.1383178,
51.96005212,-1.528471527,-9.954449615,-2.466121674,10.36865702,
51.96997713,-1.414708099,-10.07090744,-2.080972595,10.38051167,
51.97990212,-1.403182068,-10.17733612,-1.719174957,10.41646067,
51.98982712,-1.389859772,-10.3036734,-1.492246857,10.50353257,
51.99975212,-1.370250549,-10.44018951,-1.568139038,10.64585383,
52.00967712,-1.286424866,-10.58254349,-2.014660492,10.84914616,
52.01960212,-1.089434509,-10.67864365,-2.484832764,11.01792592,
52.02952712,-0.8475375366,-10.76710968,-2.788700867,11.15463237,
52.03945212,-0.6557862854,-10.96260315,-2.833457794,11.34183435,
52.04937812,-0.4456233215,-11.23204285,-2.640359344,11.54681186,
52.05930312,-0.2883004761,-11.61015656,-2.337089996,11.84655402,
52.06922812,-0.2249821472,-11.88992477,-1.911225586,12.04465489,
52.07915312,-0.2462379456,-11.90130112,-1.376088409,11.98312233,
52.08907812,-0.3239263916,-11.58411072,-0.9361532593,11.62638948,
52.09900312,-0.468974762,-10.98550552,-0.6767427063,11.01631743,
52.10892813,-0.6162684631,-10.32941986,-0.5746549988,10.36373146,
52.11885312,-0.7325765991,-9.682016144,-0.6225553894,9.729628991,
52.12877812,-0.8195457458,-9.195378113,-0.7494914246,9.26220121,
52.13870312,-0.9128018188,-8.834777985,-0.8958869934,8.926876425,
52.14862812,-1.102008362,-8.556955719,-0.9425898743,8.678962454,
52.15855312,-1.377285919,-8.395890656,-0.9252259827,8.55826732,
52.16847812,-1.536554718,-8.146658936,-0.8635542297,8.335153155,
52.17840312,-1.573677521,-7.81973877,-0.7099736023,8.008048319,
52.18832812,-1.573527832,-7.506739655,-0.5019062805,7.686289091,
52.19825312,-1.612895966,-7.286996613,-0.2189945984,7.466572953,
52.20817912,-1.668879547,-7.17143692,0.1121168518,7.363914491,
52.21810413,-1.671723633,-7.269632721,0.4525090027,7.473083982,
52.22802912,-1.51170639,-7.322622528,0.9081614685,7.53198607,
52.23795412,-1.470541992,-7.501051483,1.169368286,7.732767247,
52.24787912,-1.623823242,-7.823630676,1.254391479,8.088231999,
52.25780412,-1.773511963,-8.102500763,1.269809418,8.390964143,
52.26772912,-1.896107025,-8.398435364,1.159937897,8.687600033,
52.27765412,-1.911824341,-8.701105957,0.8433462524,8.948494292,
52.28757912,-1.765728149,-8.738677826,0.6268963623,8.937297415,
52.29750412,-1.528471527,-8.58255249,0.4210743713,8.727756647,
52.30742912,-1.262025604,-8.292755127,0.2396516418,8.391658306,
52.31735412,-0.9969268799,-7.929909668,0.2192939758,7.995337416,
52.32727912,-1.116378479,-7.862100677,0.5275030518,7.9584664,
52.33720412,-1.56679184,-8.086334381,0.7997868347,8.275463695,
52.34712913,-1.976789246,-8.16252594,0.846789093,8.441064933,
52.35705513,-2.310445404,-8.271050262,0.8469387817,8.629353145,
52.36698012,-2.599793701,-8.51594101,0.7628137207,8.93655769,
52.37690512,-2.906954956,-9.024732971,0.6173162842,9.501435245,
52.38683012,-3.19196228,-9.7011763,0.3867956543,10.22012992,
52.39675512,-3.400927734,-10.33780243,0.1787283325,10.88431956,
52.40668012,-3.556154938,-10.85033661,0.1203497314,11.41886713,
52.41660512,-3.589535522,-11.07367218,0.2315684509,11.64322141,
52.42653012,-3.572471008,-11.0375972,0.3909869385,11.60792711,
52.43645512,-3.659889221,-10.8385112,0.7099736023,11.46177022,
52.44638012,-3.735482025,-10.51039352,1.092428284,11.20783643,
52.45630513,-3.688779144,-10.18332367,1.602717133,10.94878417,
52.46623012,-3.72440506,-10.03647903,2.129771118,10.91503685,
52.47615512,-3.806135101,-10.29244675,2.411485291,11.23549668,
52.48608012,-3.92214386,-11.08983856,2.672243042,12.06269517,
52.49600512,-4.120032349,-12.32956055,2.53318222,13.24423429,
52.50593012,-4.002975769,-13.8935083,1.481020203,14.53433207,
52.51585612,-3.376229095,-15.18113068,-0.1899549866,15.55319049,
52.52578112,-2.568209381,-15.48664536,-1.798959045,15.8008904,
52.53570612,-1.85808609,-14.08451111,-2.214045868,14.37803659,
52.54563112,-1.507964172,-11.77286819,-0.9937834167,11.91058298,
52.55555612,-1.319655762,-10.14171021,0.1986369324,10.22913652,
52.56548112,-0.9551637268,-9.223220215,0.8449928284,9.310968895,
52.57540612,-0.5704637146,-8.509504395,1.282682648,8.624521359,
52.58533112,-0.1676513672,-7.932753754,1.363215179,8.050779138,
52.59525613,0.2091151428,-7.775879974,1.040486298,7.847971092,
52.60518112,0.340841217,-8.429420929,0.463585968,8.449036743,
52.61510612,-0.0628692627,-9.663005676,-0.3830534363,9.670799407,
52.62503112,-0.9331594849,-11.00556381,-1.350940704,11.12736547,
52.63495612,-1.802551575,-12.05922272,-2.28050766,12.40462655,
52.64488112,-2.673889618,-12.60678406,-2.932551727,13.21667695,
52.65480612,-3.335513763,-12.40949432,-3.059038696,13.20904687,
