Time (s),Acceleration x (m/s^2),Acceleration y (m/s^2),Acceleration z (m/s^2),Absolute acceleration (m/s^2),Activity
39.70262521,-3.515289917,-13.5444342,0.1312770081,13.99379129,
39.71255021,-3.75359436,-13.12186295,0.07200027466,13.64836773,
39.72247521,-3.811374207,-12.51906647,0.03667373657,13.08644121,
39.73240021,-3.903881836,-12.25965591,0.006137237549,12.86621522,
39.74232521,-3.866309967,-12.31504074,-0.05688171387,12.90781998,
39.75225021,-3.882027283,-12.71036865,-0.1832189941,13.29124435,
39.76217521,-3.886817322,-12.99672318,-0.523611145,13.57557847,
39.77210021,-3.537593536,-12.50439697,-0.8704399109,13.02429182,
39.78202521,-2.875969391,-11.36526581,-1.053958282,11.77078141,
39.79195021,-2.194286957,-10.29334488,-1.104852448,10.58246394,
39.80187521,-1.590442657,-9.44730423,-1.203946381,9.655596923,
39.81180021,-1.017134857,-8.821605377,-1.223106537,8.963887234,
39.82172521,-0.4918771362,-8.456963654,-1.118773499,8.544813134,
39.83164596,-0.1031355286,-8.228388977,-0.9758207703,8.286691033,
39.84157096,0.2062710571,-8.132588196,-0.7514373779,8.169834554,
39.85149596,0.4939727783,-8.179141388,-0.3932322693,8.203474542,
39.86142096,0.7882608032,-8.346343689,-0.09999206543,8.384080539,
39.87134596,1.088985443,-8.555758209,0.07484436035,8.625108087,
39.88127196,1.39360199,-8.701854401,0.1603166199,8.814198655,
39.89119696,1.654808807,-8.788224792,0.2893482971,8.947346513,
39.90112196,1.855691071,-8.7615802,0.4299060059,8.966253182,
39.91104696,1.96107193,-8.557554474,0.4776567078,8.792365871,
39.92097196,1.997146912,-8.174501038,0.4637356567,8.427699197,
39.93089696,1.925146637,-7.672744446,0.412691803,7.92133268,
39.94082196,1.699266357,-7.216044159,0.3614982605,7.422228806,
39.95074696,1.154399414,-7.038663025,0.3315605164,7.140402479,
39.96067196,0.5071453857,-7.147636414,0.3990701294,7.176709532,
39.97059696,0.1525328064,-7.234904938,0.4227209473,7.248848785,
39.98052196,-0.2387535095,-7.553143158,0.4161346436,7.568364608,
39.99044696,-0.7158114624,-8.022566986,0.4776567078,8.068588664,
40.00037196,-1.207987976,-8.45382019,0.5471122742,8.557198292,
40.01029696,-1.729503479,-8.870254211,0.5221142578,9.052358552,
40.02022196,-2.342179413,-9.204958191,0.5060975647,9.511739822,
40.03014696,-2.914140015,-9.239087219,0.6789880371,9.711537954,
40.04007196,-3.301235046,-8.919501801,1.042282562,9.567759306,
40.04999696,-3.511996765,-8.4749263,1.341061249,9.271296692,
40.05992196,-3.610641632,-8.082592163,1.541494446,8.985612622,
40.06984696,-3.506158905,-7.806566162,1.544039154,8.695957821,
40.07977196,-3.194806366,-7.614515533,1.412013702,8.377435002,
40.08969696,-2.872077484,-7.601043549,1.454225922,8.254663236,
40.09962196,-2.631976776,-7.535479889,1.701212311,8.161181424,
40.10954696,-2.546654205,-7.331005096,2.117496643,8.044431328,
40.11947196,-2.521955566,-7.255861359,2.394121399,8.046092294,
40.12939696,-2.461930389,-7.240144043,2.640509033,8.09030747,
40.13932196,-2.46297821,-7.351063385,3.002755737,8.313900202,
40.14924696,-2.588567047,-7.557334442,3.219205627,8.612622603,
40.15917196,-2.766397247,-7.855813751,3.393892365,8.993623786,
40.16909696,-2.870281219,-8.322692871,3.500470734,9.474124037,
40.17902196,-2.870879974,-8.856632538,3.417243805,9.917633133,
40.18894696,-3.080444183,-9.516909485,3.125949554,10.48008889,
40.19887196,-3.215014343,-10.28825546,2.916834412,11.16657695,
40.20879696,-3.166365509,-10.75812836,2.682421875,11.53076682,
40.21872196,-3.120111694,-11.17755615,2.425256653,11.85557794,
40.22864696,-3.087629242,-11.66149979,2.548300781,12.32955265,
40.23857196,-3.14166687,-11.9679126,3.108735352,12.75794804,
40.24849696,-3.196153564,-11.86253174,3.976181488,12.91298091,
40.25842196,-3.215014343,-11.61464722,4.77746521,12.96381584,
40.26834696,-3.150348816,-11.42274628,5.178930359,12.93155636,
40.27827296,-2.910397797,-11.61494659,5.137017517,13.02944161,
40.28819796,-2.571502533,-12.08751389,4.423152008,13.12573392,
40.29812296,-2.25012085,-12.71605682,3.582051086,13.40120274,
40.30804796,-1.97514267,-13.18443283,2.584375763,13.57974432,
40.31797296,-1.911225586,-13.23876984,1.581012268,13.46912803,
40.32789796,-2.079625397,-13.06812469,1.333427124,13.29957716,
40.33782296,-2.022893372,-12.55484207,1.446591797,12.7987806,
40.34774796,-1.951491852,-11.99665283,1.398990784,12.23458928,
40.35767296,-1.826052704,-11.3428125,1.350791016,11.56799465,
40.36759796,-1.493144989,-10.39962387,1.38656662,10.59736881,
40.37752296,-1.337917786,-9.535919952,1.373843079,9.726830838,
40.38744796,-1.490001526,-9.295070801,1.190773773,9.488750598,
40.39737296,-1.797312469,-9.656269684,0.9324110413,9.866269136,
40.40729796,-2.132166138,-10.40022263,0.4475692749,10.62596261,
40.41722296,-2.316133575,-11.04912323,-0.2127076721,11.29127289,
40.42714796,-2.347119141,-11.31811386,-0.7533833313,11.5834475,
40.43707296,-2.323318634,-11.24072479,-1.243015137,11.5454229,
40.44699796,-2.203717346,-11.00421661,-1.437460785,11.31439114,
40.45692296,-1.978884888,-10.75064392,-1.334774323,11.01244535,
40.46684796,-1.609453125,-10.48434769,-1.16772171,10.67124453,
40.47677296,-1.251846771,-10.11341904,-1.096918945,10.24946809,
40.48669796,-1.099463654,-9.70357132,-1.056502991,9.822642987,
40.49662296,-1.178648987,-9.204958191,-1.022523651,9.336274597,
40.50654796,-1.320254517,-8.633446655,-0.9512718201,8.785464769,
40.51647296,-1.426982574,-8.108638,-0.9210346985,8.284599834,
40.52639796,-1.447489929,-7.673492889,-0.9355545044,7.864666709,
40.53632296,-1.434167633,-7.299720154,-0.927171936,7.496825923,
40.54624796,-1.476379852,-7.071594543,-0.8689430237,7.276139693,
40.55617296,-1.504371643,-6.856641541,-0.7644602966,7.061236917,
40.56609796,-1.485510864,-6.67177597,-0.5770500183,6.859469648,
40.57602296,-1.551373901,-6.533463593,-0.3586541748,6.724696299,
40.58594796,-1.585951996,-6.449637909,-0.2339634705,6.645886833,
40.59587296,-1.704206085,-6.45532608,-0.1525328064,6.678234755,
40.60579796,-1.841320953,-6.49978363,-0.1122665405,6.75649716,
40.61572296,-1.932631073,-6.622977448,-0.09714797974,6.899879047,
40.62564796,-2.070943451,-6.792874146,-0.1022373962,7.102281212,
40.63557396,-2.29682373,-7.034022675,-0.09969268799,7.400190056,
40.64549896,-2.584974518,-7.332352295,-0.08936416626,7.775182917,
40.65542396,-2.848875732,-7.620652771,-0.06750961304,8.136030921,
40.66534896,-3.086132355,-7.854017487,-0.1065783691,8.439263151,
40.67527396,-3.323388977,-8.015381927,-0.1266366577,8.677977793,
40.68519896,-3.46813797,-8.112529907,-0.1435514832,8.823929369,
40.69512396,-3.512445831,-8.11103302,-0.2727328491,8.843105539,
40.70504896,-3.549868011,-8.23976532,-0.3864962769,8.980238014,
40.71497396,-3.547472992,-8.708291016,-0.4007167053,9.411666745,
40.72489896,-3.457061005,-9.414223022,-0.3806584167,10.03612309,
40.73482396,-3.252586212,-10.11072464,-0.3698808289,10.62745885,
40.74474896,-3.354075165,-11.02726868,-0.220790863,11.52819254,
40.75467396,-3.646866302,-11.8656752,-0.2076182556,12.41519179,
40.76459896,-3.695066071,-12.33614685,-0.1107696533,12.87813272,
40.77452396,-3.682192841,-12.44706619,0.1954934692,12.98176485,
40.78444896,-3.646267548,-12.32312393,0.7150630188,12.87112915,
40.79437396,-3.575614471,-11.9758461,1.249002686,12.56049029,
40.80429896,-3.371139679,-11.36317017,1.710193634,11.9754324,
40.81422396,-3.071313171,-10.82354233,2.085762634,11.44257134,
40.82414896,-2.780467987,-10.81830322,2.086660767,11.36313513,
40.83407396,-2.669698334,-11.61344971,1.780547333,12.04864524,
40.84399896,-2.379002838,-12.57385254,1.091829529,12.84342298,
40.85392396,-2.149230652,-13.54802673,0.4376898193,13.72442324,
40.86384896,-2.419418793,-14.16609146,-0.01362167358,14.37121846,
40.87377396,-2.685864716,-13.62391891,-0.3673361206,13.89100326,
40.88369896,-2.483036499,-12.62190262,-0.3872447205,12.86964857,
40.89362396,-2.016456757,-11.9718045,-0.3743714905,12.14620743,
40.90354896,-1.613794098,-11.50253036,-0.6047424316,11.63091783,
40.91347396,-1.077010345,-10.71397018,-1.025966492,10.81673313,
40.92339896,-0.4477189636,-9.854008484,-1.379381561,9.960152055,
40.93332396,0.04999603271,-9.229507141,-1.534908142,9.356401267,
40.94324896,0.426612854,-8.996142426,-1.536554718,9.13638755,
40.95317396,0.7048841858,-9.155560913,-1.308728485,9.275447569,
40.96309896,0.942739563,-9.589209137,-0.896635437,9.677067989,
40.97302396,1.203048248,-10.09351044,-0.3951782227,10.1726321,
40.98294996,1.505419464,-10.45560745,0.09116043091,10.56382152,
40.99287496,1.883982239,-10.57954971,0.4270619202,10.75447084,
41.00279996,2.235301666,-10.55036041,0.5355862427,10.79784844,
41.01272496,2.441572723,-10.46054718,0.4032614136,10.74927646,
41.02264996,2.419568481,-10.35845947,0.1383123779,10.63819179,
41.03257496,1.941762085,-10.23032593,-0.1558259583,10.41413896,
41.04249996,1.16308136,-10.11566437,-0.299078064,10.18670072,
41.05242496,0.6730004883,-9.830657043,-0.3275189209,9.859108287,
41.06234996,0.4655319214,-9.371861115,-0.3261717224,9.389083486,
41.07227496,0.4040098572,-8.889264679,-0.2902464294,8.903173226,
41.08219996,0.299078064,-8.466394043,-0.1381626892,8.472801468,
41.09212496,0.1272354126,-8.075706482,0.05328918457,8.076884534,
41.10204996,-0.02544708252,-7.607031097,0.2124082947,7.610038565,
41.11197496,-0.2387535095,-7.175628204,0.3016227722,7.185932066,
41.12189996,-0.4951702881,-6.855144653,0.3385958862,6.88134064,
41.13182496,-0.7909552002,-6.703509979,0.3689826965,6.760089082,
41.14174996,-1.231339417,-6.710245972,0.4890330505,6.839791743,
41.15167496,-1.818717957,-6.783593445,0.8147557068,7.07026887,
41.16159996,-2.365081787,-6.770420837,1.187181244,7.269223444,
41.17152496,-2.875670013,-6.77012146,1.397493896,7.487123066,
41.18144996,-3.295097809,-6.845564575,1.418749695,7.728665772,
41.19137496,-3.670816498,-6.971003723,1.401236115,8.002077812,
41.20129996,-3.855532379,-7.045399017,1.374741211,8.148171,
41.21122496,-3.872596893,-7.191195831,1.242566071,8.261614529,
41.22114996,-3.807631989,-7.4172258,1.169817352,8.419131342,
41.23107496,-3.676654358,-7.738008728,1.238823853,8.656168372,
41.24099996,-3.544479218,-7.960296478,1.413959656,8.827736678,
41.25092496,-3.353925476,-7.98230072,1.697170715,8.823056688,
41.26084996,-3.138373718,-7.946525116,1.91421936,8.755620296,
41.27077496,-3.057541809,-8.003556519,2.199376373,8.845492371,
41.28069996,-2.980003052,-8.191565552,2.378853149,9.035546839,
41.29062496,-2.998714142,-8.590485992,2.534529419,9.44524089,
41.30054996,-3.081941071,-9.057514801,2.455643463,9.877606995,
41.31047596,-3.270997925,-9.627978516,2.232307892,10.41060019,
41.32040096,-3.372786255,-10.1776355,1.948947144,10.89763031,
41.33032596,-3.063080292,-10.4681813,1.617686005,11.02643137,
41.34025096,-2.473905487,-10.44258453,1.554816742,10.84367259,
41.35017596,-2.028132477,-10.75004517,1.922751617,11.10737441,
41.36010096,-1.587598572,-11.0468779,2.414179688,11.41850446,
41.37002596,-1.331331482,-11.31901199,2.736160126,11.72088087,
41.37995096,-1.427132263,-11.75041489,3.009940796,12.21346389,
41.38987596,-1.557660828,-11.88932602,3.418591003,12.46872667,
41.39980096,-1.726958771,-11.66988235,3.893852692,12.42298795,
41.40972596,-2.215991821,-10.98685272,4.37255722,12.03082745,
41.41965096,-2.807411957,-10.2412532,4.863835602,11.67997114,
41.42957596,-2.848127289,-9.893226929,5.1624646,11.51689233,
41.43950096,-2.03127594,-9.776469727,4.867428131,11.10843368,
41.44942596,-1.214424591,-10.39887543,4.574038239,11.42511545,
41.45935096,-1.240470428,-11.6984729,4.120631104,12.46485603,
41.46927596,-1.483864288,-12.40560242,2.945874023,12.83662722,
41.47920096,-1.917063446,-12.76874725,1.599873047,13.01059693,
41.48912596,-2.634820862,-13.01738022,0.682281189,13.29887124,
41.49905096,-3.559298401,-13.22933945,0.505947876,13.70912144,
41.50897596,-4.146527252,-13.30612976,0.2727328491,13.93991251,
41.51890096,-4.106710052,-12.39736954,-0.3427871704,13.06435387,
41.52882596,-3.682492218,-10.71352112,-0.8508306885,11.36064244,
41.53875096,-3.518583069,-9.440568237,-1.087638245,10.13349458,
41.54867596,-3.659589844,-8.885971527,-1.513203278,9.728456813,
41.55860096,-3.437451782,-8.680598602,-2.013912048,9.551162683,
41.56852596,-2.738704834,-8.908275146,-2.327958984,9.606105521,
41.57845096,-2.061213684,-9.706714783,-1.917213135,10.10666216,
41.58837596,-1.540147247,-10.67145859,-1.272803192,10.85689228,
41.59830096,-1.232387238,-11.27889542,-1.003064117,11.39027646,
41.60822596,-1.341061249,-11.66898422,-1.487456818,11.83960159,
41.61815096,-1.719174957,-11.70011948,-2.18216217,12.02539771,
41.62807696,-2.105671234,-11.25704086,-2.703078918,11.7669646,
41.63800196,-2.441572723,-10.52805679,-2.910697174,11.19256071,
41.64792696,-2.742147675,-9.756710815,-2.668500824,10.48015632,
41.65785196,-2.782863007,-9.000184021,-2.212698669,9.676966174,
41.66777696,-2.676733704,-8.333470459,-1.682351532,8.913020806,
41.67770196,-2.58826767,-7.828869781,-1.14437027,8.324657044,
41.68762696,-2.456391907,-7.476951599,-0.8014334106,7.910812975,
41.69755196,-2.285746765,-7.238347778,-0.6276448059,7.616577633,
41.70747696,-2.10971283,-7.056925049,-0.6340814209,7.39277611,
41.71740196,-1.908231812,-6.991511078,-0.7740403748,7.288464468,
41.72732696,-1.698517914,-6.942712555,-0.9930349731,7.216116628,
41.73725196,-1.620829468,-7.005731506,-1.065634003,7.269314818,
41.74717696,-1.629661102,-7.085665283,-1.064885559,7.348226253,
41.75710196,-1.660047913,-7.164850616,-1.058748322,7.430463743,
41.76702696,-1.785187683,-7.373067627,-0.9928852844,7.650806656,
41.77695196,-1.924398193,-7.671846313,-0.8785231018,7.958161666,
41.78687696,-2.051334229,-8.026608582,-0.796942749,8.322832161,
41.79680196,-2.149380341,-8.353379059,-0.6993457031,8.653777323,
41.80672696,-2.29338089,-8.544830933,-0.6430627441,8.870584043,
41.81665196,-2.391127625,-8.620124359,-0.6099815369,8.966387944,
41.826578,-2.456840973,-8.613088989,-0.6030958557,8.97692008,
41.836503,-2.501897278,-8.588989105,-0.5739065552,8.964351208,
41.846428,-2.543510742,-8.628806305,-0.4730163574,9.00830115,
41.856353,-2.584824829,-8.601862335,-0.3483256531,8.988586418,
41.866278,-2.477947083,-8.59662323,-0.5824388123,8.965566779,
41.876203,-2.215243378,-8.651858368,-1.166374512,9.006796653,
41.886128,-2.240391083,-8.837023315,-1.243015137,9.200946686,
41.896053,-2.354753265,-9.09044632,-0.8810678101,9.431720825,
41.905978,-2.162552948,-9.127419434,-0.7554789734,9.410481882,
41.915903,-2.096989288,-9.305399323,-0.6975494385,9.564224791,
41.925828,-2.066153412,-9.633666687,-0.5797444153,9.869783551,
41.935753,-2.035317535,-9.893975372,-0.3049159241,10.10575281,
41.945679,-2.082619171,-10.10159363,0.02484832764,10.31407358,
41.955604,-2.323019257,-10.30996033,0.2546205139,10.57149621,
41.965529,-2.589165802,-10.52745804,0.4403842163,10.85011938,
41.975454,-2.784659271,-10.66412384,0.5349874878,11.03467608,
41.985379,-3.045267334,-10.79315552,0.556842041,11.22835394,
41.995304,-3.262615356,-10.8703949,0.5804928589,11.36429127,
42.005229,-3.477418671,-10.90497299,0.552052002,11.45930356,
42.015154,-3.586691437,-10.81126785,0.4695735168,11.40036698,
42.025079,-3.579356689,-11.06005051,0.2362088013,11.62722263,
42.035004,-3.687282257,-12.15113159,-0.07110214233,12.69846861,
42.044929,-3.861519928,-13.60760284,-0.5881269836,14.15712134,
42.054854,-4.064198456,-14.91378662,-1.194965057,15.50376348,
42.064779,-4.251758423,-15.27558426,-1.765578461,15.95425308,
42.074704,-4.046984253,-13.95518005,-1.996697845,14.66669473,
42.084629,-3.468886414,-11.93273575,-1.53984787,12.52176053,
42.094554,-2.828069,-10.23556503,-0.7581733704,10.64610693,
42.104479,-2.288441162,-8.884324951,-0.2191442871,9.176939414,
42.114404,-1.747166748,-7.801925812,-0.1459465027,7.996495382,
42.124329,-1.122216339,-7.018005981,-0.4632865906,7.122247674,
42.134254,-0.6499484253,-6.925198975,-0.8583151245,7.008389162,
42.144179,-0.3623963928,-7.544012146,-1.1572435,7.640854855,
42.154104,-0.2749781799,-8.709189148,-1.308279419,8.811196494,
42.164029,-0.2803669739,-9.927954712,-1.393152924,10.0291458,
42.173954,-0.4052073669,-10.73821976,-1.576371918,10.86087036,
42.183879,-0.6650669861,-11.07157654,-1.701960754,11.22135427,
42.193804,-0.9644444275,-11.1052565,-1.683998108,11.27354091,
42.203729,-1.262324982,-11.05630829,-1.549577637,11.23550658,
42.213654,-1.531914368,-10.93595856,-1.398392029,11.13092321,
42.223579,-1.627266083,-10.6301445,-1.207389221,10.82154128,
42.233504,-1.644629974,-10.23152344,-1.079405365,10.41892487,
42.24343,-1.576671295,-9.787546692,-1.155746613,9.98086734,
42.253355,-1.522184601,-9.264234924,-1.483564911,9.504949213,
42.26328,-1.479523315,-8.945697327,-1.568737793,9.201925242,
42.273205,-1.507515106,-8.631500702,-1.451681213,8.881598083,
42.28313,-1.56679184,-8.356522522,-1.354084167,8.609288546,
42.293055,-1.647174683,-8.191864929,-1.28477829,8.454022162,
42.30298,-1.763782196,-8.104895782,-1.211730194,8.382634034,
42.312905,-1.941013641,-8.023165741,-1.143921204,8.333503356,
42.32283,-2.182760925,-7.94023819,-1.066681824,8.303591866,
42.332755,-2.452799377,-7.891739044,-0.9979747009,8.324165029,
42.34268,-2.606380005,-7.91793457,-0.9506730652,8.389915605,
42.352605,-2.735860748,-8.003556519,-0.9303153992,8.509250127,
42.36253,-2.846929779,-8.110883331,-0.9113049316,8.64418384,
42.372455,-2.96383667,-8.21521637,-0.7523355103,8.765849447,
42.38238,-3.152145081,-8.304430847,-0.4882846069,8.89595482,
42.392305,-3.322640533,-8.330027618,-0.3112028503,8.973636245,
42.40223,-3.422033844,-8.344397736,-0.3085084534,9.024104757,
42.412155,-3.410657501,-8.454868011,-0.1896556091,9.118845702,
42.42208,-3.107837219,-8.684640198,0.1752854919,9.225635618,
42.432005,-2.7391539,-9.075776825,0.6054908752,9.49943726,
42.44193,-2.24188797,-9.42036026,0.7363188171,9.711406412,
42.451855,-1.687740326,-9.649533691,0.7250921631,9.822816628,
42.46178,-1.277144165,-9.779463501,0.7682025146,9.892377808,
42.471705,-0.9142987061,-9.777966614,0.8541238403,9.857692466,
42.48163,-0.6550378418,-9.574090576,1.228046265,9.674729069,
42.491555,-0.6080355835,-9.447753296,1.617386627,9.604461938,
42.50148,-0.9045689392,-9.46481781,1.738035736,9.665494781,
42.511405,-1.691332855,-9.424551544,1.535357208,9.697427514,
42.52133,-2.379152527,-9.270222473,1.135987701,9.637834793,
42.531256,-2.835852814,-9.29402298,0.8352630615,9.75287592,
42.541181,-3.105142822,-9.473649445,0.7463479614,9.997448726,
42.551106,-3.16980835,-9.613907776,0.7991880798,10.15448715,
42.561031,-3.162174225,-9.561666412,0.9651928711,10.11713436,
42.570956,-3.217559052,-9.357341309,1.046922913,9.950305031,
42.580881,-3.464545441,-9.336833954,1.004561005,10.00942986,
42.590806,-3.76886261,-9.549541626,1.052162018,10.32013157,
42.600731,-3.975732422,-9.764195251,1.270108795,10.61881036,
42.610656,-4.113146667,-9.778864746,1.550924835,10.72145228,
42.620581,-4.167783051,-9.699380035,1.658850403,10.68644811,
42.630506,-4.06135437,-9.815239105,1.562301178,10.73658712,
42.640431,-3.851790161,-10.35696259,1.363514557,11.13382833,
42.650356,-3.767365723,-11.37289993,0.8517288208,12.0108842,
42.660281,-3.845952301,-12.48269211,-0.05807922363,13.06186528,
42.670206,-3.952081604,-13.13189209,-0.5839356995,13.72612545,
42.680131,-3.807182922,-13.35103638,-1.078357544,13.9250734,
42.690056,-3.62605957,-13.62032639,-1.340462494,14.1583346,
42.699981,-3.556154938,-13.7315451,-1.334624634,14.24720295,
42.709906,-3.355572052,-13.30089066,-1.04722229,13.75755176,
42.719831,-2.958747253,-12.23645416,-0.77927948,12.61317852,
42.729756,-2.717149658,-10.7907605,-0.9901908875,11.17156625,
42.739681,-2.687211914,-9.668244781,-1.251547394,10.11248911,
42.749606,-2.685565338,-9.063053284,-1.44853775,9.562920978,
42.759531,-2.672542419,-8.612639923,-1.675016785,9.172007995,
42.769456,-2.761756897,-8.42223587,-1.726060638,9.0299858,
42.779381,-2.950514374,-8.474776611,-1.429078217,9.086783712,
42.789306,-3.143762512,-8.706345062,-1.065035248,9.317617032,
42.799231,-3.361559601,-9.114695892,-0.9768685913,9.763812596,
42.809157,-3.458408203,-9.571695557,-1.165177002,10.24380694,
42.819082,-3.357218628,-9.81119751,-1.450483704,10.47064547,
