Time (s),Acceleration x (m/s^2),Acceleration y (m/s^2),Acceleration z (m/s^2),Absolute acceleration (m/s^2),Activity
43.50667567,-3.414557934,-10.43031406,-1.682154298,11.10316623,
43.50909062,-3.46959281,-10.17906761,-1.605584025,10.87333398,
43.51150557,-3.550948858,-9.942177773,-1.531406522,10.66777121,
43.51392051,-3.603590965,-9.717252731,-1.452443361,10.46520235,
43.51633541,-3.663411379,-9.51386261,-1.339980721,10.28249547,
43.51875036,-3.701696634,-9.339186668,-1.213161111,10.11902789,
43.52116531,-3.728017569,-9.15733242,-1.048056364,9.942498388,
43.52358025,-3.742374659,-8.968298912,-0.8638089895,9.756122151,
43.5259952,-3.754338741,-8.791230202,-0.6723831892,9.58294772,
43.52841015,-3.747160196,-8.642875671,-0.457029134,9.431298163,
43.5308251,-3.735196114,-8.492127419,-0.3254238665,9.282985446,
43.53324005,-3.737588882,-8.343772888,-0.1842473447,9.144510033,
43.53565494,-3.7710886,-8.209774017,-0.05742774159,9.034644243,
43.53806989,-3.787838221,-8.121239662,0.03110669367,8.961206373,
43.54048484,-3.8213377,-8.018348694,0.09810572863,8.882914067,
43.54289978,-3.876372576,-7.910671711,0.1531406492,8.810700501,
43.54531473,-3.938585997,-7.807780266,0.1938186288,8.747082828,
43.54772968,-4.005585194,-7.72163868,0.2033899277,8.701136943,
43.55014458,-4.098905087,-7.637889862,0.1698904037,8.669904682,
43.55255952,-4.216153622,-7.530212879,0.1411765367,8.631337566,
43.55497447,-4.354937077,-7.448856831,0.1172483116,8.629292682,
43.55738942,-4.52482748,-7.384250641,0.06939185411,8.660602547,
43.55980437,-4.713860512,-7.326822758,0.04067798331,8.712316991,
43.56221932,-4.886143684,-7.264609337,0.0143569354,8.754950316,
43.56463421,-5.070391178,-7.190432072,0.01914258115,8.798383176,
43.56704916,-5.261816978,-7.140182972,0.03110669367,8.869605313,
43.56946411,-5.455635548,-7.097112179,0.05503492057,8.951870718,
43.57187906,-5.639883041,-7.056434155,0.07896314561,9.03370239,
43.574294,-5.824130535,-7.008577347,0.07896314561,9.113006534,
43.57670895,-6.003592014,-6.943971157,0.05742774159,9.179605136,
43.57912385,-6.20458889,-6.903293133,0.02871387079,9.281875018,
43.5815388,-6.407979012,-6.857829571,-0.007178467698,9.385737742,
43.58395374,-6.577869415,-6.807580471,-0.06699903309,9.466573128,
43.58636869,-6.74536705,-6.75972414,-0.1603191197,9.550892592,
43.58878364,-6.912864685,-6.69511795,-0.2895315289,9.627882998,
43.59119859,-7.08036232,-6.628118515,-0.4402793646,9.708621506,
43.59361354,-7.283751965,-6.580262184,-0.6221339107,9.835646583,
43.59602843,-7.477570534,-6.518048763,-0.8207381964,9.953523595,
43.59844338,-7.666603565,-6.465406895,-1.03848505,10.0824971,
43.60085833,-7.841279984,-6.41037178,-1.249053478,10.20483575,
43.60327328,-7.960920811,-6.34815836,-1.464407444,10.28687824,
43.60568822,-8.099704742,-6.290730953,-1.710868239,10.39738347,
43.60810317,-8.15473938,-6.254838467,-1.954936147,10.46157512,
43.61051812,-8.195417404,-6.209374905,-2.179861546,10.51061366,
43.61293301,-8.197810173,-6.173482418,-2.368894339,10.53221901,
43.61534796,-8.185846329,-6.149554253,-2.531606436,10.54675916,
43.61776291,-8.126026154,-6.1399827,-2.648854733,10.52369327,
43.62017786,-8.032705307,-6.163911343,-2.730210543,10.48676343,
43.62259281,-7.881958008,-6.199803352,-2.780459881,10.40642978,
43.62500775,-7.72163868,-6.271588326,-2.79720974,10.33348471,
43.6274227,-7.484749317,-6.37687254,-2.770888567,10.21586018,
43.6298376,-7.197610378,-6.510870457,-2.703889608,10.07512026,
43.63225255,-6.879364967,-6.711867332,-2.553141832,9.944513998,
43.63466749,-6.518048763,-6.917650223,-2.371287346,9.79601184,
43.63708244,-6.147161484,-7.164111137,-2.136790514,9.678737335,
43.63949739,-5.726024628,-7.460821152,-1.85443759,9.585934961,
43.64191234,-5.312066078,-7.805387497,-1.524227977,9.563754018,
43.64432723,-4.895715237,-8.166703224,-1.141376376,9.589880566,
43.64674218,-4.496113777,-8.528019905,-0.7106683254,9.666809819,
43.64915713,-4.115654945,-8.896514893,-0.2799602449,9.806373978,
43.65157208,-3.7256248,-9.267401695,0.1268195957,9.989048881,
43.65398702,-3.30927372,-9.604789734,0.5718846321,10.17498552,
43.65640197,-2.854637384,-9.97567749,1.014556766,10.42556576,
43.65881692,-2.340180635,-10.32024384,1.473978758,10.68440413,
43.66123182,-1.852044702,-10.6480608,1.899901152,10.97364537,
43.66364676,-1.373480201,-10.9806633,2.359323025,11.31493789,
43.66606171,-0.9164510965,-11.27258778,2.768495798,11.6436973,
43.66847666,-0.5383850932,-11.53101254,3.125026464,11.95909273,
43.67089161,-0.1770688742,-11.82532978,3.460021496,12.32239938,
43.67330656,0.2225325108,-12.11246777,3.783052683,12.69144924,
43.6757215,0.6173482537,-12.33500099,4.04147768,12.99488015,
43.6781364,0.9571290612,-12.55753326,4.230510235,13.28551672,
43.68055135,1.354337573,-12.77288723,4.39800787,13.57657364,
43.6829663,1.696511269,-12.92124271,4.563112736,13.80792025,
43.68538124,1.971685886,-13.0576334,4.615755081,13.98908611,
43.68779619,2.210968018,-13.14138222,4.613361835,14.1020358,
43.69021114,2.486142635,-13.18206024,4.649254322,14.19729492,
43.69262604,2.723032236,-13.22273827,4.613361835,14.26670317,
43.69504098,2.857030153,-13.22513103,4.41236496,14.23150297,
43.69745593,3.031706333,-13.17488194,4.256831646,14.17354483,
43.69987088,3.139383316,-13.08156109,4.10608387,14.06566361,
43.70228583,3.278167009,-12.97388458,3.90030098,13.9384507,
43.70470078,3.314059258,-12.82313633,3.632304668,13.73351562,
43.70711572,3.304488182,-12.66760349,3.335594654,13.50977469,
43.70953062,3.371487141,-12.52164078,3.029313564,13.3167246,
43.71194557,3.397808075,-12.37328625,2.739781857,13.12058371,
43.71436051,3.519842148,-12.17707443,2.476571321,12.91525594,
43.71677546,3.541377544,-11.95454216,2.184647083,12.65800601,
43.71919041,3.503092289,-11.72961617,1.90229404,12.38847342,
43.72160536,3.515056372,-11.49751282,1.607976794,12.12988094,
43.72402025,3.522234917,-11.2438736,1.335195065,11.85805963,
43.7264352,3.476771355,-10.97348499,1.060020447,11.5597991,
43.72885015,3.462414265,-10.73898792,0.7752745152,11.3099613,
43.7312651,3.400201082,-10.5475626,0.4761717021,11.0923029,
43.73368005,3.364308596,-10.3776722,0.1579262912,10.91052672,
43.73609499,3.37387991,-10.27478027,-0.1603191197,10.81572362,
43.73850994,3.27577424,-10.12164021,-0.4307080805,10.64724409,
43.74092484,3.239881754,-10.01874828,-0.6747759581,10.55118351,
43.74333978,3.177668571,-9.925428391,-0.9212366939,10.46233164,
43.74575473,3.079562664,-9.82732296,-1.129412293,10.36028739,
43.74816968,2.97427845,-9.781859398,-1.323230863,10.30931838,
43.75058463,2.940778971,-9.736394882,-1.531406522,10.28546412,
43.75299958,2.840280533,-9.686145782,-1.691725612,10.23477157,
43.75541453,2.670390129,-9.659825325,-1.80658114,10.18366065,
43.75782942,2.519642353,-9.652647018,-1.895115495,10.15448939,
43.76024437,2.395215511,-9.652647018,-2.021935225,10.14883608,
43.76265932,2.277967215,-9.635896683,-2.165504456,10.13553398,
43.76507426,2.146361828,-9.611968994,-2.297109842,10.11303766,
43.76748921,2.031506538,-9.62154007,-2.426322222,10.12857797,
43.76990416,1.897508383,-9.619147301,-2.57228446,10.13632972,
43.77231911,1.761117458,-9.607182503,-2.665604353,10.12447218,
43.774734,1.622333765,-9.59282589,-2.756531715,10.11200981,
43.77714895,1.483550072,-9.588040352,-2.835494757,10.10799036,
43.7795639,1.368694544,-9.568898201,-2.931207657,10.10094629,
43.78197885,1.253839016,-9.585647583,-3.022135019,10.12867474,
43.7843938,1.098305583,-9.573683739,-3.096312523,10.12170177,
43.78680874,0.9714859724,-9.583254814,-3.187239647,10.14598711,
43.78922364,0.813559711,-9.600004196,-3.290131092,10.18071326,
43.79163859,0.6484549642,-9.62154007,-3.416950703,10.23083962,
43.79405354,0.4809573591,-9.626325607,-3.519842148,10.26093336,
43.79646848,0.2967100143,-9.611968994,-3.608376503,10.27123974,
43.79888343,0.1459621787,-9.607182503,-3.680161238,10.28896726,
43.80129838,-0.0239282269,-9.583254814,-3.732803345,10.28460822,
43.80371328,-0.2009970993,-9.583254814,-3.728017569,10.28480859,
43.80612822,-0.3397808075,-9.561718941,-3.694518089,10.2562851,
43.80854317,-0.4953143001,-9.559326172,-3.656233072,10.24666255,
43.81095812,-0.6460621357,-9.54257679,-3.613162279,10.22414347,
43.81337307,-0.784845829,-9.530612946,-3.536591768,10.19588385,
43.81578801,-0.9068797827,-9.504291534,-3.455235958,10.15345478,
43.81820296,-0.9834501147,-9.504291534,-3.335594654,10.12051992,
43.82061791,-1.083948612,-9.487542152,-3.184846878,10.06636232,
43.82303281,-1.160519004,-9.456435204,-3.026920557,9.996660401,
43.82544775,-1.234696507,-9.44207859,-2.87856555,9.948038158,
43.8278627,-1.292124271,-9.418149948,-2.734996319,9.891983544,
43.83027765,-1.31126678,-9.394221306,-2.581855536,9.830401442,
43.8326926,-1.306481123,-9.367900848,-2.46221447,9.773789405,
43.83510755,-1.304088354,-9.355937004,-2.352144718,9.734823493,
43.83752244,-1.253839016,-9.363115311,-2.258824587,9.712997947,
43.83993739,-1.194018483,-9.332008362,-2.196611166,9.66111592,
43.84235234,-1.191625714,-9.320044518,-2.122433662,9.632648976,
43.84476728,-1.165304661,-9.284152031,-2.026720762,9.573975712,
43.84718223,-1.158126116,-9.243474007,-1.959721804,9.519641661,
43.84959718,-1.127019525,-9.198010445,-1.931007862,9.465852339,
43.85201213,-1.091127157,-9.145368576,-1.864008784,9.396959807,
43.85442702,-1.036092162,-9.109476089,-1.811366796,9.345431572,
43.85684197,-0.9547362328,-9.047262192,-1.761117458,9.266391377,
43.85925692,-0.8997012973,-8.999405861,-1.732403636,9.208691038,
43.86167187,-0.8566305041,-8.932407379,-1.725225091,9.137730518,
43.86408682,-0.7704889178,-8.882157326,-1.703689694,9.076834829,
43.86650176,-0.7369893789,-8.87258625,-1.703689694,9.064684147,
43.86891666,-0.6819544435,-8.848658562,-1.674975872,9.031575963,
43.87133161,-0.5982056856,-8.819944382,-1.660618901,8.994827629,
43.87374656,-0.5455635786,-8.791230202,-1.679761529,8.966881669,
43.8761615,-0.4929214716,-8.760123253,-1.686939955,8.934679479,
43.87857645,-0.4498506486,-8.760123253,-1.689332843,8.932859031,
43.8809914,-0.4235295951,-8.74576664,-1.686939955,8.917038625,
43.88340635,-0.3828516304,-8.731410027,-1.732403636,8.909843926,
43.88582124,-0.337387979,-8.731410027,-1.763510346,8.914107944,
43.88823619,-0.3014956415,-8.729017258,-1.794616938,8.916686148,
43.89065114,-0.2847459018,-8.726624489,-1.864008784,8.928022398,
43.89306609,-0.2488535494,-8.729017258,-1.911865234,8.939401493,
43.89548104,-0.1794617027,-8.729017258,-1.962114573,8.948622374,
43.89789598,-0.1722832322,-8.738588333,-2.053041935,8.978172907,
43.90031088,-0.1531406492,-8.752944946,-2.170290232,9.019293597,
43.90272583,-0.1651047617,-8.776873589,-2.294716835,9.073394895,
43.90514078,-0.1746760458,-8.786444664,-2.423929453,9.116334546,
43.90755572,-0.1842473447,-8.819944382,-2.57228446,9.189233555,
43.90997067,-0.1890329868,-8.867800713,-2.689532757,9.268614211,
43.91238562,-0.1986042857,-8.886942863,-2.847458839,9.334089081,
43.91480057,-0.2344966233,-8.910871506,-2.986242771,9.400865149,
43.91721551,-0.3038884699,-8.941978455,-3.16570425,9.49068018,
43.91963041,-0.4115654826,-8.963513374,-3.383451223,9.589666331,
43.92204536,-0.5431707501,-8.989834785,-3.620340586,9.706648747,
43.92446031,-0.6723831892,-9.018548965,-3.818944931,9.816856166,
43.92687525,-0.8279166222,-9.047262192,-4.048655987,9.946356841,
43.9292902,-0.9571290612,-9.083154678,-4.264009953,10.0797607,
43.93170515,-1.074377418,-9.111868858,-4.433900356,10.19018711,
43.93412005,-1.19880414,-9.150154114,-4.579862595,10.30231008,
43.93653499,-1.347159147,-9.1860466,-4.713860512,10.41243347,
43.93894994,-1.466800332,-9.2362957,-4.816751957,10.51958939,
43.94136489,-1.581655741,-9.2865448,-4.92442894,10.62974833,
43.94377984,-1.689332843,-9.341579437,-5.056034088,10.75557681,
43.94619478,-1.780260086,-9.420542717,-5.190032482,10.90194424,
43.94860973,-1.90229404,-9.461220741,-5.326423168,11.02289455,
43.95102463,-1.986042738,-9.525827408,-5.446064472,11.15102559,
43.95343958,-2.086541414,-9.597611427,-5.587240696,11.29978136,
43.95585452,-2.172683001,-9.614361763,-5.709274769,11.39088767,
43.95826947,-2.242074728,-9.631111145,-5.804987907,11.46660741,
43.96068442,-2.306680918,-9.695717812,-5.936593056,11.600468,
43.96309937,-2.371287346,-9.731609344,-6.056233883,11.70492174,
43.96551432,-2.445464849,-9.74835968,-6.104090691,11.75885785,
43.96792921,-2.49332118,-9.784252167,-6.15433979,11.82472576,
43.97034416,-2.545963287,-9.808179855,-6.192625046,11.87564424,
43.97275911,-2.577069998,-9.805787086,-6.214160442,11.89161638,
43.97517406,-2.581855536,-9.810572624,-6.195017815,11.88661259,
43.977589,-2.610569477,-9.791430473,-6.151947021,11.85468835,
43.98000395,-2.629712105,-9.801001549,-6.106483459,11.84331699,
43.98241885,-2.632104874,-9.786644936,-6.022734642,11.78896636,
43.9848338,-2.615355253,-9.743574142,-5.907878876,11.69103729,
43.98724874,-2.600998163,-9.700503349,-5.797809124,11.59653169,
43.98966369,-2.565105915,-9.652647018,-5.678168297,11.48890587,
43.99207864,-2.555534601,-9.59282589,-5.536991596,11.36711668,
43.99449359,-2.510071039,-9.494720459,-5.414957523,11.21480888,
43.99690848,-2.467000246,-9.406186104,-5.261816978,11.05663354,
43.99932343,-2.402393818,-9.320044518,-5.11585474,10.89984842,
44.00173838,-2.349751949,-9.229117393,-5.015356064,10.76344455,
44.00415333,-2.289931297,-9.109476089,-4.898108006,10.59329042,
44.00656828,-2.220539331,-8.987442017,-4.792823792,10.42478148,
44.00898322,-2.129612207,-8.886942863,-4.689932346,10.27173145,
44.01139817,-2.055434704,-8.800801277,-4.608576298,10.14484551,
44.01381307,-1.993221283,-8.685946465,-4.555934429,10.00875295,
44.01622801,-1.904686809,-8.592626572,-4.479363918,9.875513372,
44.01864296,-1.849651933,-8.508877754,-4.400400639,9.756317886,
44.02105791,-1.782652855,-8.432307243,-4.342973232,9.651065907,
44.02347286,-1.713261008,-8.348558426,-4.328616142,9.558797455,
44.02588781,-1.651047587,-8.279166222,-4.28315258,9.466569996,
44.02830275,-1.569691658,-8.214560509,-4.256831646,9.384218237,
44.03071765,-1.505085468,-8.159524918,-4.189832687,9.295043147,
44.0331326,-1.435693622,-8.085348129,-4.130012035,9.191902412,
44.03554755,-1.387837172,-8.027919769,-4.065405846,9.105004807,
44.03796249,-1.320838094,-7.972885132,-4.003192425,9.018706126,
44.04037744,-1.234696507,-7.925028801,-3.967299938,8.948185613,
44.04279239,-1.127019525,-7.881958008,-3.972085476,8.897915378,
44.04520734,-1.048056364,-7.860422611,-3.974478483,8.870239286,
44.04762223,-0.9714859724,-7.850851059,-4.005585194,8.867037842,
44.05003718,-0.9140582681,-7.853243828,-4.060619831,8.888057974,
44.05245213,-0.8303094506,-7.855636597,-4.151547432,8.923888514,
44.05486708,-0.7585247755,-7.831708431,-4.287938118,8.960883332,
44.05728202,-0.6484549642,-7.850851059,-4.441078663,9.04320385,
44.05969697,-0.5383850932,-7.874779224,-4.615755081,9.143697355,
44.06211192,-0.3972085714,-7.965706348,-4.85982275,9.339600069,
44.06452682,-0.2608176768,-7.989634991,-5.108676434,9.486878731,
44.06694176,-0.06221338734,-8.061419487,-5.374279499,9.688820093,
44.06935671,0.1244267747,-8.121239662,-5.625525951,9.880109205,
44.07177166,0.3302095234,-8.216953278,-5.91266489,10.12852238,
44.07418661,0.5192425251,-8.291130066,-6.202196121,10.36724106,
44.07660156,0.6987041831,-8.343772888,-6.513263226,10.60798432,
44.07901645,0.8877372146,-8.434700012,-6.82433033,10.88594167,
44.0814314,1.036092162,-8.487341881,-7.118647575,11.12580795,
44.08384635,1.177268744,-8.563912392,-7.365108013,11.3565564,
44.0862613,1.282552958,-8.628518105,-7.523034573,11.51921508,
44.08867624,1.430907965,-8.721838951,-7.554141045,11.62682326,
44.09109119,1.540977836,-8.834300995,-7.475177765,11.67466357,
44.09350614,1.641476393,-8.925228119,-7.25743103,11.62000202,
44.09592104,1.706082582,-9.05922699,-6.953542709,11.54695058,
44.09833598,1.789831281,-9.221938133,-6.587440968,11.47353553,
44.10075093,1.873580098,-9.425328255,-6.183053493,11.42704098,
44.10316588,1.907079697,-9.626325607,-5.821737289,11.41033403,
44.10558083,1.873580098,-9.836894035,-5.484349728,11.41721851,
44.10799578,1.758724689,-10.07139015,-5.173282623,11.45813533,
44.11041072,1.569691658,-10.31306553,-4.886143684,11.51944671,
44.11282562,1.363908887,-10.59063339,-4.658825874,11.65016831,
44.11524057,1.143769264,-10.861022,-4.479363918,11.80401237,
44.11765551,0.9092726111,-11.14098263,-4.335794449,11.98946972,
44.12007046,0.6580262184,-11.45204926,-4.235296249,12.22784384,
44.12248541,0.4235295951,-11.75833035,-4.132404804,12.47054447,
44.12490036,0.2201396823,-12.078969,-4.007977962,12.72846577,
44.12731531,0.03110669367,-12.40917778,-3.799802303,12.97794893,
44.1297302,-0.1387837082,-12.72981644,-3.579662561,13.22427584,
44.13214515,-0.3302095234,-13.00020504,-3.318845034,13.42121834,
44.1345601,-0.5048855543,-13.24905872,-3.050848961,13.60515145,
44.13697505,-0.6987041831,-13.45962715,-2.737389088,13.75292876,
44.13938999,-0.8853443861,-13.59841156,-2.428714991,13.84193946,
44.14180494,-1.105484009,-13.65105343,-2.093719721,13.85485535,
44.14421989,-1.292124271,-13.62712479,-1.734796405,13.79774016,
44.14663478,-1.51944232,-13.49312687,-1.366301775,13.64697616,
44.14904973,-1.785045743,-13.30409431,-0.9547362328,13.45722241,
44.15146468,-2.067398787,-13.02174091,-0.5024927258,13.19440689,
44.15387963,-2.352144718,-12.64367485,-0.01674975827,12.86061348,
44.15629458,-2.651247501,-12.21535969,0.5096712112,12.51015149,
44.15870953,-2.971885681,-11.7272234,1.040877819,12.14262326,
44.16112442,-3.311666489,-11.21276665,1.572084427,11.79680975,
44.16353937,-3.594019651,-10.73659515,2.033899307,11.50339946,
44.16595432,-3.854837179,-10.23410225,2.438286304,11.20454634,
44.16836926,-4.053441525,-9.793823242,2.761317253,10.95327507,
44.17078421,-4.249652863,-9.391828537,2.98863554,10.7330301,
44.17319916,-4.390829563,-8.989834785,3.158525944,10.4915585,
44.17561406,-4.500899315,-8.642875671,3.294916868,10.28658698,
44.178029,-4.567898273,-8.353343964,3.407379389,10.11208605,
44.18044395,-4.65403986,-8.121239662,3.488735437,9.989289045,
44.1828589,-4.687539577,-7.939385414,3.570091486,9.886982414,
44.18527385,-4.721039295,-7.812565804,3.586841106,9.807641183,
44.1876888,-4.764110088,-7.676175117,3.582055569,9.718617775,
44.19010374,-4.819144726,-7.546962738,3.562912941,9.637175472,
44.19251864,-4.855037212,-7.496713161,3.524627686,9.601827684,
44.19493359,-4.926821709,-7.456035137,3.464807272,9.584932005,
44.19734854,-5.046463013,-7.451249599,3.337987661,9.59844108,
44.19976348,-5.221138954,-7.467999458,3.168097258,9.647183429,
44.20217843,-5.419743061,-7.503891945,2.95752883,9.717457792,
44.20459338,-5.668596745,-7.523034573,2.68713975,9.795394748,
44.20700833,-5.931807518,-7.575676441,2.373680115,9.910175138,
44.20942322,-6.180660725,-7.628318787,2.000399828,10.01965139,
44.21183817,-6.41037178,-7.692924976,1.636690736,10.14656186,
44.21425312,-6.608976364,-7.779066563,1.237089276,10.28216101,
44.21666807,-6.723831654,-7.86281538,0.8446664214,10.38013676,
44.21908301,-6.766902447,-7.984848976,0.4067798555,10.47445711,
44.22149796,-6.702296257,-8.092526436,0.01196411345,10.50761164,
44.22391291,-6.525227547,-8.224131584,-0.3828516304,10.50530867,
44.22632781,-6.254838467,-8.379665375,-0.7728816867,10.4851868,
44.22874275,-5.91266489,-8.523234367,-1.117448211,10.43330344,
44.2311577,-5.541777134,-8.611768723,-1.411765337,10.33764653,
44.23357265,-5.158925533,-8.72423172,-1.670190215,10.27211113,
44.2359876,-4.759324074,-8.841479301,-1.844866276,10.20913578,
44.23840255,-4.378865242,-8.941978455,-1.947757602,10.14530429,
44.24081744,-3.986442566,-9.018548965,-1.990828395,10.0592916,
44.24323239,-3.613162279,-9.102297783,-1.966900229,9.988766846,
44.24564734,-3.282952785,-9.142974854,-1.837687731,9.886802535,
44.24806228,-2.971885681,-9.159725189,-1.64626193,9.769485574,
