Time (s),Acceleration x (m/s^2),Acceleration y (m/s^2),Acceleration z (m/s^2),Absolute acceleration (m/s^2),Activity
77.32198305,-3.972085476,-9.930213928,2.615355253,11.01029949,
77.32439805,-4.146761417,-10.15513897,2.675175667,11.29066174,
77.326813,-4.285545349,-10.31067276,2.73260355,11.49534662,
77.329228,-4.36211586,-10.43270683,2.79720974,11.64876856,
77.33164295,-4.414757729,-10.55952644,2.811566591,11.78552465,
77.33405795,-4.512863636,-10.70309544,2.785245657,11.94486431,
77.33647295,-4.68275404,-10.86341476,2.715853691,12.13745554,
77.3388879,-4.862215519,-11.01416302,2.632104874,12.32399703,
77.3413029,-5.072783947,-11.13858986,2.52682066,12.49744549,
77.34371785,-5.295316696,-11.28455162,2.414358139,12.696874,
77.34613285,-5.489135265,-11.39701462,2.309073925,12.85901904,
77.34854785,-5.670989513,-11.46162033,2.20618248,12.97675244,
77.35096279,-5.860022545,-11.51904774,2.146361828,13.10096157,
77.35337779,-5.927021503,-11.526227,2.313859463,13.16576767,
77.35579274,-5.864808083,-11.4640131,2.605783939,13.13810032,
77.35820774,-5.917450428,-11.40180016,2.74935317,13.13682645,
77.36062274,-6.128018856,-11.34915733,2.852244616,13.209515,
77.36303769,-6.477370739,-11.27737331,2.950350285,13.33566824,
77.36545269,-6.891329288,-11.19841003,3.163311481,13.52410242,
77.36786764,-7.391428947,-11.14816093,3.352344513,13.78959491,
77.37028264,-7.96331358,-11.10269737,3.622733593,14.13536171,
77.37269764,-8.628518105,-11.07637596,3.9625144,14.58900098,
77.37511259,-9.250652313,-11.01655579,4.366901398,15.0335923,
77.37752759,-9.853643417,-11.03809071,4.84546566,15.56959449,
77.37994253,-10.49970531,-11.10269737,5.362315655,16.1946945,
77.38235753,-11.1314106,-11.21755219,5.967699528,16.89246035,
77.38477253,-11.66740322,-11.35872936,6.570691109,17.55912903,
77.38718748,-12.16271782,-11.4831562,7.149754047,18.19102977,
77.38960248,-12.68913841,-11.58126163,7.633104324,18.79904615,
77.39201743,-13.24188042,-11.61954689,8.018348694,19.35601154,
77.39443243,-13.57926846,-12.00000572,8.554341316,20.03929701,
77.39684743,-13.67498112,-12.46421337,9.138189316,20.63657499,
77.39926238,-13.63430309,-12.88056469,9.556933403,21.05084662,
77.40167738,-13.47398472,-13.35673618,10.08096218,21.48433067,
77.40409233,-13.36630726,-13.76830196,10.58345413,21.91423761,
77.40650732,-13.20359516,-13.99561977,10.86341476,22.09583849,
77.40892232,-13.10309696,-14.1559391,11.09791183,22.25410993,
77.41133727,-13.11745358,-14.26122284,11.3443718,22.45316986,
77.41375227,-13.06959724,-14.23490238,11.56451225,22.5207629,
77.41616722,-13.05524063,-14.12483215,11.87318611,22.60360015,
77.41858222,-12.96670628,-13.94058514,12.04307652,22.52800652,
77.42099722,-12.8374939,-13.70130253,12.00000572,22.28288756,
77.42341217,-12.74895859,-13.440485,11.96411324,22.05272291,
77.42582717,-12.76570892,-13.14138222,11.86840057,21.82929644,
77.42824217,-12.70828152,-12.80877972,11.83011532,21.57584032,
77.43065712,-12.77288723,-12.43549919,11.88993549,21.42799231,
77.43307212,-12.93081379,-12.00718403,11.78943729,21.22190485,
77.43548706,-13.07438278,-11.52861977,11.43769264,20.8487259,
77.43790206,-13.14616776,-11.03809071,11.01655579,20.39670744,
77.44031706,-13.11266804,-10.56431198,10.63370419,19.91538138,
77.44273201,-13.04327583,-10.09531879,10.09292603,19.33674383,
77.44514701,-13.06241894,-9.717252731,9.272188187,18.7356682,
77.44756196,-13.02174091,-9.324830055,8.358129501,18.06589385,
77.44997696,-12.91884899,-8.891729355,7.403393269,17.34271438,
77.45239191,-12.76810169,-8.480163574,6.458228111,16.63268786,
77.45480691,-12.59821129,-8.10449028,5.30728054,15.89229112,
77.45722191,-12.32782269,-7.637889862,4.189832687,15.09527316,
77.45963686,-12.01196957,-7.161718369,3.141776085,14.33347061,
77.46205186,-11.66740322,-6.711867332,2.208575249,13.64020768,
77.46446686,-11.32283688,-6.240481377,1.43808639,13.0083948,
77.4668818,-11.01894855,-5.644668579,0.9164510965,12.4144832,
77.4692968,-10.79402256,-4.862215519,0.5479564071,11.85125812,
77.47171175,-10.68634605,-4.151547432,0.2488535494,11.46713853,
77.47412675,-10.73898792,-3.64426899,-0.05982056633,11.34064092,
77.47654175,-10.98305607,-3.385843992,-0.2321037948,11.49544833,
77.4789567,-11.36590767,-3.354737282,-0.1866401732,11.85212867,
77.4813717,-11.80618668,-3.448057413,0.04307080805,12.29947149,
77.48378665,-12.08375454,-3.385843992,0.5431707501,12.56089558,
77.48620165,-12.09811115,-2.998206854,0.6125625968,12.47913341,
77.4886166,-11.78704453,-2.457428932,1.062413216,12.08727006,
77.4910316,-11.301301,-2.04586339,2.285145521,11.71011748,
77.4934466,-10.89212894,-1.780260086,2.615355253,11.34230497,
77.49586154,-10.51884842,-1.524227977,2.368894339,10.88949509,
77.49827654,-10.25324535,-1.184447169,1.775474429,10.47302558,
77.50069154,-10.03789139,-0.7800601721,1.03848505,10.12157145,
77.50310649,-9.997213364,-0.3469592929,-0.02632104978,10.0032669,
77.50552149,-10.19342422,-0.004785645287,-1.280160069,10.27349649,
77.50793644,-10.54516983,0.2297109663,-2.706282377,10.88932221,
77.51035144,-11.00459099,0.2967100143,-4.216153622,11.78834217,
77.51276644,-11.38744259,0.1914258152,-5.680561066,12.72710755,
77.51518139,-11.61236858,-0.09810572863,-7.008577347,13.56380792,
77.51759639,-11.55972576,-0.6436693072,-8.05424118,14.1036297,
77.52001134,-11.01894855,-1.275374413,-8.673981667,14.08125581,
77.52242634,-9.997213364,-1.945364833,-8.72423172,13.41047868,
77.52484134,-8.968298912,-2.452643156,-8.705088615,12.73673473,
77.52725628,-8.08295536,-2.727817774,-8.602197647,12.11498913,
77.52967128,-7.403393269,-2.711068153,-8.283951759,11.43608233,
77.53208623,-7.00139904,-2.488535643,-7.814958572,10.78359753,
77.53450123,-6.963113785,-2.041077614,-7.341179848,10.32200915,
77.53691623,-7.207181931,-1.526620865,-7.018148899,10.17489344,
77.53933118,-7.544569969,-1.050449133,-6.898507595,10.27683738,
77.54174618,-7.843672752,-0.6915257573,-6.953542709,10.50491153,
77.54416113,-8.00638485,-0.4953143001,-7.125825882,10.72962856,
77.54657613,-7.968099594,-0.4642075896,-7.302894592,10.8184273,
77.54899113,-7.779066563,-0.6245267391,-7.348358154,10.71924801,
77.55140608,-7.482356548,-0.9116654396,-7.238288403,10.4503403,
77.55382108,-7.128218651,-1.265803218,-6.991827965,10.06476116,
77.55623602,-6.747759819,-1.667797327,-6.628118515,9.604465917,
77.55865102,-6.338587284,-2.103291035,-6.195017815,9.109323117,
77.56106602,-5.960521221,-2.533999205,-5.711667538,8.635514533,
77.56348097,-5.635097504,-2.959921598,-5.223531723,8.234120682,
77.56589597,-5.312066078,-3.304488182,-4.709074974,7.830266616,
77.56831092,-4.972285271,-3.601198196,-4.189832687,7.432829018,
77.57072592,-4.625326157,-3.826123476,-3.665804386,7.03356131,
77.57314092,-4.256831646,-3.986442566,-3.170490026,6.638098146,
77.57555587,-3.88594389,-4.079762459,-2.723032236,6.257789242,
77.57797087,-3.567698479,-4.108476639,-2.282752752,5.900763752,
77.58038582,-3.227917671,-4.127619267,-1.813759565,5.544945181,
77.58280082,-2.871387243,-4.098905087,-1.289731383,5.168103584,
77.58521582,-2.579462767,-4.046263218,-0.6891329288,4.847760141,
77.58763076,-2.349751949,-3.993621111,-0.06939185411,4.634129803,
77.59004576,-2.179861546,-3.940979004,0.5862415433,4.541672711,
77.59246071,-2.067398787,-3.890729666,1.234696507,4.57563007,
77.59487571,-2.005185366,-3.783052683,1.8855443,4.678411403,
77.59729071,-1.976471543,-3.6299119,2.608176708,4.887257503,
77.59970566,-2.005185366,-3.407379389,3.378665686,5.200613855,
77.60212066,-2.079362869,-3.129812002,4.414757729,5.797375174,
77.60453561,-2.234896421,-2.859423161,5.268995285,6.397919516,
77.60695061,-2.404786825,-2.550748825,5.814558983,6.789581387,
77.60936561,-2.510071039,-2.230110645,6.214160442,7.063259879,
77.61178055,-2.533999205,-1.926222205,6.393621922,7.142120499,
77.61419555,-2.498106956,-1.591227055,6.187839508,6.860167613,
77.6166105,-2.483749866,-1.229910851,5.654240131,6.296993375,
77.6190255,-2.569891453,-0.8207381964,5.010570526,5.690673973,
77.6214405,-2.778067112,-0.4211367965,4.395615101,5.216938297,
77.62385545,-3.101098061,-0.03349951655,3.984049797,5.048820078,
77.62627045,-3.376272678,0.2823530734,3.672982693,4.996973316,
77.6286854,-3.677768469,0.5647061467,3.495913982,5.105515499,
77.6311004,-3.881158352,0.7704889178,3.376272678,5.201563277,
77.6335154,-4.0127635,0.9332008362,3.326023579,5.294862374,
77.63593035,-4.07736969,1.079162955,3.273381472,5.338966429,
77.63834535,-4.089334011,1.1820544,3.237488985,5.348012733,
77.64076029,-4.003192425,1.239482164,3.115455151,5.221870012,
77.64317529,-3.914657831,1.304088354,2.811566591,4.993005014,
77.64559029,-3.799802303,1.330409408,2.474178553,4.725467834,
77.64800524,-3.723232031,1.332802176,2.222932339,4.536545666,
77.65042024,-3.637090445,1.31126678,1.904686809,4.309951196,
77.65283519,-3.550948858,1.296909928,1.615155339,4.110953652,
77.65525019,-3.481556892,1.229910851,1.344766378,3.929671196,
77.65766519,-3.390629768,1.177268744,1.160519004,3.772152738,
77.66008014,-3.280559778,1.093519926,0.9260223508,3.579856936,
77.66249514,-3.158525944,0.9906286001,0.7226324677,3.388189612,
77.66491009,-2.971885681,0.8757730722,0.4929214716,3.137204895,
77.66732509,-2.794816732,0.7226324677,0.2799602449,2.90027171,
77.66974009,-2.651247501,0.5838487148,0.1196411327,2.717408073,
77.67215503,-2.565105915,0.3924229145,-0.004785645287,2.594954143,
77.67457003,-2.562713146,0.1722832322,-0.05264209956,2.569037052,
77.67698498,-2.644068956,-0.04067798331,-0.03589234129,2.644625419,
77.67939998,-2.821137905,-0.2273181528,0.0143569354,2.830317781,
77.68181498,-3.043670416,-0.394815743,0.1196411327,3.071501762,
77.68422993,-3.304488182,-0.5335994363,0.2440679073,3.356179323,
77.68664493,-3.560520172,-0.6699903607,0.3565305769,3.640508897,
77.68905988,-3.811766386,-0.7585247755,0.4474578202,3.91217859,
77.69147488,-4.070191383,-0.8279166222,0.5407779217,4.188596972,
77.69388988,-4.323830605,-0.8446664214,0.6053841114,4.446961028,
77.69630482,-4.567898273,-0.8590233326,0.6580262184,4.694317227,
77.69871982,-4.835894585,-0.8159525394,0.7154539824,4.95616075,
77.70113477,-5.13021183,-0.7657032609,0.7633104324,5.242901651,
77.70354977,-5.467599869,-0.6771687865,0.8015955687,5.567383707,
77.70596477,-5.881557941,-0.6077769399,0.8183453679,5.96923829,
77.70837972,-6.386443615,-0.5407779217,0.8231309652,6.461938362,
77.71079472,-6.982256413,-0.5096712112,0.8518448472,7.052468291,
77.71320967,-7.647460938,-0.500099957,0.9092726111,7.717547242,
77.71562467,-8.358129501,-0.5359922647,0.94277215,8.428192914,
77.71803967,-9.066405296,-0.5623133183,0.9260223508,9.130904592,
77.72045462,-9.767501831,-0.650847733,0.8638089895,9.827200047,
77.72286962,-10.41117096,-0.8063812256,0.7872386575,10.4719853,
77.72528462,-11.05244732,-1.016949654,0.6819544435,11.12006476,
77.72769957,-11.59322548,-1.265803218,0.5862415433,11.67684949,
77.73011457,-12.12443256,-1.567298889,0.4929214716,12.23524672,
77.73252951,-12.65324593,-1.957328916,0.4642075896,12.81215273,
77.73494451,-13.12463188,-2.423929453,0.5192425251,13.35668405,
77.73735946,-13.4907341,-2.94317174,0.6843472719,13.82499539,
77.73977446,-13.70608807,-3.517449379,0.9762716293,14.1838784,
77.74218946,-13.78265858,-4.182653904,1.373480201,14.46868062,
77.74460441,-13.72044468,-4.965106964,1.832902193,14.70586345,
77.74701941,-13.53141212,-5.790630817,2.352144718,14.90513684,
77.74943436,-13.25145149,-6.637690067,2.852244616,15.09288559,
77.75184936,-12.93559933,-7.484749317,3.337987661,15.31317615,
77.75426436,-12.68196011,-8.231309891,3.773481369,15.58286675,
77.7566793,-12.57906818,-8.891729355,4.125226021,15.94720342,
77.7590943,-12.70828152,-9.324830055,4.388436794,16.36188413,
77.76150925,-13.06720448,-9.578469276,4.582255363,16.83733859,
77.76392425,-13.67498112,-9.638289452,4.689932346,17.37518914,
77.76633925,-14.54836178,-9.544969559,4.735395908,18.03289352,
77.7687542,-15.60838223,-9.334401131,4.886143684,18.83154376,
77.7711692,-16.7545433,-9.032905579,5.201996326,19.73243194,
77.77358415,-17.88634872,-8.688339233,5.532206059,20.64010691,
77.77599915,-18.92483521,-8.33180809,5.845665932,21.48814147,
77.77841415,-19.87239265,-8.030312538,6.072983742,22.27732122,
77.7808291,-20.67877388,-7.76949501,6.159125328,22.93276186,
77.7832441,-21.32483482,-7.568498135,6.04187727,23.42082461,
77.78565904,-21.80340004,-7.434499741,5.764309883,23.74631146,
77.78807404,-22.14557266,-7.338787079,5.357530117,23.93715341,
77.79048904,-22.38485527,-7.341179848,4.850251675,24.0520188,
77.79290399,-22.48535347,-7.4010005,4.309473515,24.0611199,
77.79531899,-22.48056793,-7.52782011,3.818944931,24.01308707,
77.79773394,-22.38724899,-7.72163868,3.438486099,23.92981003,
77.80014894,-22.22214317,-7.994420528,3.172882795,23.82858771,
77.80256394,-22.08096695,-8.303094864,2.952743053,23.77454894,
77.80497889,-21.97328949,-8.633303642,2.756531715,23.768842,
77.80739389,-21.85364914,-8.932407379,2.574677229,23.74865986,
77.80980884,-21.5976181,-9.219545364,2.450250387,23.61060887,
77.81222384,-21.17408752,-9.432506561,2.368894339,23.30076872,
77.81463884,-20.75534439,-9.552147865,2.306680918,22.96407252,
77.81705378,-20.43231201,-9.552147865,2.373680115,22.67944577,
77.81946878,-20.24806595,-9.403793335,2.495713949,22.46428481,
77.82188373,-20.16431618,-9.188439369,2.684746981,22.32117675,
77.82429873,-20.20260239,-8.90130043,2.837887764,22.25829956,
77.82671373,-20.32463646,-8.530412674,2.98863554,22.24389197,
77.82912868,-20.4299202,-8.106883049,3.227917671,22.21536956,
77.83154368,-20.67398834,-7.57806921,3.483949661,22.29302205,
77.83395863,-21.08555222,-6.903293133,3.75673151,22.50264429,
77.83637363,-21.58804512,-6.142375946,4.063013077,22.80965913,
77.83878863,-22.08575249,-5.357530117,4.33340168,23.13572912,
77.84120358,-22.51167488,-4.563112736,4.532006264,23.41231694,
77.84361858,-22.83470726,-3.818944931,4.642076015,23.61264631,
77.84603352,-23.05723953,-3.21356082,4.747360229,23.75922341,
77.84844852,-23.08356094,-2.787638426,4.771288395,23.73577272,
77.85086352,-22.7653141,-2.555534601,4.728217602,23.39115912,
77.85327847,-22.03789711,-2.529213428,4.599005222,22.6542861,
77.85569347,-20.89652061,-2.648854733,4.357329845,21.50970313,
77.85810842,-19.49671936,-2.816352367,4.017549038,20.10459168,
77.86052342,-18.08734703,-2.952743053,3.634697676,18.683732,
77.86293842,-16.82154274,-2.986242771,3.242274761,17.38948796,
77.86535337,-15.80937958,-2.890529871,2.904886723,16.33187106,
77.86776837,-14.98146248,-2.744567633,2.574677229,15.44687128,
77.87018332,-14.26840115,-2.605783939,2.285145521,14.68329906,
77.87259832,-13.58644676,-2.589034081,2.04586339,13.98142304,
77.87501332,-12.79681587,-2.715853691,1.818545222,13.20762903,
77.87742826,-11.84207916,-2.981456995,1.596012712,12.31548543,
77.87984326,-10.73659515,-3.294916868,1.47158587,11.32680527,
77.88225821,-9.49232769,-3.675375462,1.387837172,10.27320601,
77.88467321,-8.185846329,-4.060619831,1.351944804,9.23712446,
77.88708821,-6.903293133,-4.354937077,1.301695466,8.26530968,
77.88950316,-5.769095421,-4.484149456,1.296909928,7.421053408,
77.89191816,-4.811966419,-4.500899315,1.299302697,6.715750365,
77.89433311,-4.089334011,-4.429114819,1.318445325,6.170738109,
77.89674811,-3.541377544,-4.323830605,1.366301775,5.753576848,
77.89916311,-3.158525944,-4.189832687,1.39022994,5.428049684,
77.90157805,-2.89292264,-4.04147768,1.399801254,5.163524648,
77.90399305,-2.730210543,-3.940979004,1.40697968,4.996494465,
77.906408,-2.581855536,-3.833301783,1.414158225,4.833220877,
77.908823,-2.428714991,-3.696911097,1.399801254,4.639531411,
77.911238,-2.261217356,-3.572484255,1.40697968,4.455933067,
77.91365295,-2.024327993,-3.419343472,1.450050473,4.229947987,
77.91606795,-1.80658114,-3.194418192,1.533799291,3.977509681,
77.9184829,-1.670190215,-2.914458036,1.634297848,3.735576322,
77.9208979,-1.596012712,-2.641676188,1.670190215,3.509308338,
77.9233129,-1.586441398,-2.383251429,1.612762451,3.285983324,
77.92572785,-1.560120344,-2.177468538,1.40697968,3.025712568,
77.92814285,-1.450050473,-1.969292998,1.110269666,2.685788528,
77.93055779,-1.277767301,-1.792224169,0.7369893789,2.321187216,
77.93297279,-0.993021369,-1.674975872,0.3684946895,1.98177293,
77.93538779,-0.6628118753,-1.607976794,0.02871387079,1.739463549,
77.93780274,-0.3086741269,-1.529013634,-0.2584248483,1.581121694,
77.94021774,-0.01674975827,-1.478764415,-0.4307080805,1.540303282,
77.94263274,0.2129612118,-1.476371527,-0.5288137794,1.582614728,
77.94504769,0.3254238665,-1.457229018,-0.5766702294,1.60061415,
77.94746269,0.3852444589,-1.457229018,-0.5216353536,1.595002554,
77.94987764,0.4953143001,-1.495514154,-0.3828516304,1.621256985,
77.95229264,0.6963114142,-1.50269258,-0.2225325108,1.67106412,
77.95470759,1.040877819,-1.464407444,0.004785645287,1.796646515,
77.95712259,1.543370605,-1.457229018,0.2919243574,2.142598671,
77.95953759,2.088934183,-1.488335729,0.5192425251,2.616945178,
77.96195253,2.627319336,-1.517049551,0.6963114142,3.112731247,
77.96436753,3.007778168,-1.45483613,0.7992027402,3.435404298,
77.96678248,3.089133978,-1.268195987,0.8757730722,3.452252637,
77.96919748,2.880958557,-0.9906286001,0.9355936646,3.186942537,
77.97161243,2.46221447,-0.6723831892,0.8829515576,2.700778166,
77.97402743,1.931007862,-0.3637090325,0.7585247755,2.106284753,
77.97644243,1.481157184,-0.06939185411,0.5407779217,1.578316379,
77.97885738,1.16769743,0.1698904037,0.2703889608,1.210574338,
77.98127238,0.9475577474,0.3708875179,-0.0143569354,1.017658763,
77.98368738,0.8087740541,0.5144568682,-0.2871387303,1.000614806,
77.98610232,0.7657032609,0.6317051649,-0.5718846321,1.145602432,
77.98851732,0.7585247755,0.6652047038,-0.9140582681,1.361381523,
77.99093227,0.7872386575,0.7465606928,-1.304088354,1.696391466,
77.99334727,0.8614161611,0.8015955687,-1.720439434,2.084347645,
77.99576227,0.8446664214,0.8494520187,-2.091326952,2.410120021,
77.99817722,0.6891329288,0.8614161611,-2.411965132,2.652266539,
78.00059222,0.3732803464,0.8422735929,-2.751745939,2.901873315,
78.00300717,-0.03589234129,0.8087740541,-3.077169895,3.181882822,
78.00542217,-0.3397808075,0.7896314859,-3.282952785,3.393633432,
78.00783717,-0.5120640397,0.7944171429,-3.352344513,3.483033435,
78.01025212,-0.5766702294,0.8853443861,-3.285345554,3.451069203,
78.01266712,-0.626919508,0.9882357717,-3.158525944,3.368371142,
78.01508206,-0.8350951076,1.083948612,-3.014956474,3.31093506,
78.01749706,-1.253839016,1.160519004,-2.907279491,3.372119612,
78.01991206,-1.725225091,1.225125194,-2.818745136,3.524579053,
78.02232701,-2.160718918,1.378265858,-2.691925526,3.716824727,
78.02474201,-2.555534601,1.607976794,-2.488535643,3.912691671,
78.02715696,-2.933600664,1.85443759,-2.201396942,4.109878359,
78.02957196,-3.297309637,2.115255117,-1.904686809,4.355959928,
78.03198696,-3.594019651,2.323430777,-1.639083505,4.582783277,
78.03440191,-3.773481369,2.498106956,-1.392622828,4.734881028,
78.03681691,-3.8213377,2.66799736,-1.158126116,4.802300265,
78.03923186,-3.783052683,2.823530674,-0.993021369,4.82388894,
78.04164686,-3.610769272,2.916850805,-0.8494520187,4.71881787,
78.04406186,-3.388236761,2.952743053,-0.7369893789,4.554337848,
78.0464768,-3.115455151,2.955136061,-0.6963114142,4.350142471,
78.0488918,-2.876172781,2.94317174,-0.7130611539,4.176492064,
78.05130675,-2.610569477,2.916850805,-0.7633104324,3.988199397,
78.05372175,-2.335394859,2.861815929,-0.9236295223,3.80751245,
78.05613675,-2.084148407,2.794816732,-1.138983607,3.667691209,
78.0585517,-1.868794441,2.670390129,-1.392622828,3.544400436,
78.0609667,-1.727617979,2.52682066,-1.706082582,3.504312244,
78.06338165,-1.581655741,2.376072884,-2.096112728,3.541333901,
78.06579665,-1.43808639,2.218146563,-2.390429735,3.564045589,
78.06821165,-1.301695466,2.012363911,-2.620140791,3.550937532,
